DateTime,Lead 1,Lead 2
2024-12-03 14:49:30.003000+00:00,-2.868129,0.065934
2024-12-03 14:49:30.007000+00:00,-5.38461,3.494502
2024-12-03 14:49:30.011000+00:00,-5.175819,4.021974
2024-12-03 14:49:30.015000+00:00,3.725271,0.912087
2024-12-03 14:49:30.019000+00:00,5.461533,-1.175823
2024-12-03 14:49:30.023000+00:00,1.450548,0.362637
2024-12-03 14:49:30.027000+00:00,-4.956039,3.362634
2024-12-03 14:49:30.031000+00:00,-5.252742,3.714282
2024-12-03 14:49:30.035000+00:00,3.703293,0.43956
2024-12-03 14:49:30.039000+00:00,5.472522,-2.516481
2024-12-03 14:49:30.042000+00:00,4.06593,-1.681317
2024-12-03 14:49:30.046000+00:00,-4.351644,0.813186
2024-12-03 14:49:30.050000+00:00,-4.923072,0.791208
2024-12-03 14:49:30.054000+00:00,3.857139,-2.351646
2024-12-03 14:49:30.058000+00:00,5.472522,-4.999995
2024-12-03 14:49:30.062000+00:00,4.538457,-3.923073
2024-12-03 14:49:30.066000+00:00,-4.241754,-0.384615
2024-12-03 14:49:30.070000+00:00,-5.406588,0.87912
2024-12-03 14:49:30.074000+00:00,3.362634,-1.571427
2024-12-03 14:49:30.078000+00:00,5.450544,-4.703292
2024-12-03 14:49:30.081000+00:00,5.60439,-3.901095
2024-12-03 14:49:30.085000+00:00,-0.890109,-0.241758
2024-12-03 14:49:30.089000+00:00,-3.934062,1.934064
2024-12-03 14:49:30.093000+00:00,4.230765,0.54945
2024-12-03 14:49:30.097000+00:00,5.505489,-1.846152
2024-12-03 14:49:30.101000+00:00,5.615379,-1.846152
2024-12-03 14:49:30.105000+00:00,0.956043,1.835163
2024-12-03 14:49:30.109000+00:00,-4.373622,4.252743
2024-12-03 14:49:30.113000+00:00,3.890106,2.395602
2024-12-03 14:49:30.117000+00:00,5.505489,-2.428569
2024-12-03 14:49:30.121000+00:00,5.615379,-3.703293
2024-12-03 14:49:30.124000+00:00,1.945053,-0.472527
2024-12-03 14:49:30.128000+00:00,-4.879116,2.846151
2024-12-03 14:49:30.132000+00:00,2.274723,0.593406
2024-12-03 14:49:30.136000+00:00,5.340654,-3.131865
2024-12-03 14:49:30.140000+00:00,5.60439,-3.84615
2024-12-03 14:49:30.144000+00:00,1.010988,-0.802197
2024-12-03 14:49:30.148000+00:00,-5.021973,2.351646
2024-12-03 14:49:30.152000+00:00,-1.483515,1.439559
2024-12-03 14:49:30.156000+00:00,5.087907,-2.30769
2024-12-03 14:49:30.160000+00:00,5.560434,-4.692303
2024-12-03 14:49:30.164000+00:00,1.549449,-0.197802
2024-12-03 14:49:30.167000+00:00,-4.967028,3.681315
2024-12-03 14:49:30.171000+00:00,-4.747248,3.582414
2024-12-03 14:49:30.175000+00:00,4.17582,-0.164835
2024-12-03 14:49:30.179000+00:00,5.4945,-2.296701
2024-12-03 14:49:30.183000+00:00,-0.274725,-0.197802
2024-12-03 14:49:30.187000+00:00,-5.175819,3.109887
2024-12-03 14:49:30.191000+00:00,-4.769226,2.846151
2024-12-03 14:49:30.195000+00:00,4.472523,-1.274724
2024-12-03 14:49:30.199000+00:00,5.505489,-3.450546
2024-12-03 14:49:30.203000+00:00,1.989009,-1.406592
2024-12-03 14:49:30.206000+00:00,-4.978017,2.560437
2024-12-03 14:49:30.210000+00:00,-5.560434,3.373623
2024-12-03 14:49:30.214000+00:00,2.340657,-0.164835
2024-12-03 14:49:30.218000+00:00,5.351643,-3.373623
2024-12-03 14:49:30.222000+00:00,2.571426,-1.879119
2024-12-03 14:49:30.226000+00:00,-4.83516,2.08791
2024-12-03 14:49:30.230000+00:00,-5.450544,3.40659
2024-12-03 14:49:30.234000+00:00,3.934062,0.736263
2024-12-03 14:49:30.238000+00:00,5.439555,-2.252745
2024-12-03 14:49:30.242000+00:00,5.38461,-1.637361
2024-12-03 14:49:30.246000+00:00,-3.373623,3.417579
2024-12-03 14:49:30.249000+00:00,-5.417577,4.186809
2024-12-03 14:49:30.253000+00:00,0.043956,1.637361
2024-12-03 14:49:30.257000+00:00,5.153841,-1.681317
2024-12-03 14:49:30.261000+00:00,1.296702,-3.725271
2024-12-03 14:49:30.265000+00:00,-5.021973,-1.780218
2024-12-03 14:49:30.269000+00:00,-5.560434,-1.450548
2024-12-03 14:49:30.273000+00:00,-3.999996,-1.20879
2024-12-03 14:49:30.277000+00:00,4.230765,-3.285711
2024-12-03 14:49:30.281000+00:00,2.461536,-3.340656
2024-12-03 14:49:30.285000+00:00,-4.890105,1.20879
2024-12-03 14:49:30.289000+00:00,-5.560434,4.648347
2024-12-03 14:49:30.292000+00:00,-4.230765,5.197797
2024-12-03 14:49:30.296000+00:00,4.208787,1.956042
2024-12-03 14:49:30.300000+00:00,2.813184,-1.626372
2024-12-03 14:49:30.304000+00:00,-4.824171,-1.153845
2024-12-03 14:49:30.308000+00:00,-5.549445,0.43956
2024-12-03 14:49:30.312000+00:00,-5.560434,0.593406
2024-12-03 14:49:30.316000+00:00,2.164833,-0.494505
2024-12-03 14:49:30.320000+00:00,3.758238,-2.010987
2024-12-03 14:49:30.324000+00:00,-4.17582,0.208791
2024-12-03 14:49:30.328000+00:00,-5.505489,3.021975
2024-12-03 14:49:30.331000+00:00,-5.60439,3.879117
2024-12-03 14:49:30.335000+00:00,-0.120879,2.010987
2024-12-03 14:49:30.339000+00:00,3.340656,-0.560439
2024-12-03 14:49:30.343000+00:00,-4.450545,0.010989
2024-12-03 14:49:30.347000+00:00,-5.516478,2.219778
2024-12-03 14:49:30.351000+00:00,-5.615379,3.472524
2024-12-03 14:49:30.355000+00:00,-3.175821,1.637361
2024-12-03 14:49:30.359000+00:00,3.373623,-1.31868
2024-12-03 14:49:30.363000+00:00,-0.571428,-1.043955
2024-12-03 14:49:30.367000+00:00,-5.175819,0.692307
2024-12-03 14:49:30.371000+00:00,-5.131863,1.472526
2024-12-03 14:49:30.374000+00:00,3.857139,0.208791
2024-12-03 14:49:30.378000+00:00,5.472522,-2.120877
2024-12-03 14:49:30.382000+00:00,0.318681,-1.813185
2024-12-03 14:49:30.386000+00:00,-5.131863,0.956043
2024-12-03 14:49:30.390000+00:00,-5.582412,2.296701
2024-12-03 14:49:30.394000+00:00,0.87912,0.681318
2024-12-03 14:49:30.398000+00:00,5.230764,-2.824173
2024-12-03 14:49:30.402000+00:00,1.64835,-3.065931
2024-12-03 14:49:30.406000+00:00,-5.010984,-0.065934
2024-12-03 14:49:30.410000+00:00,-5.560434,2.076921
2024-12-03 14:49:30.414000+00:00,1.835163,0.813186
2024-12-03 14:49:30.417000+00:00,5.285709,-2.439558
2024-12-03 14:49:30.421000+00:00,5.208786,-3.010986
2024-12-03 14:49:30.425000+00:00,-3.868128,-0.230769
2024-12-03 14:49:30.429000+00:00,-5.483511,2.626371
2024-12-03 14:49:30.433000+00:00,0.923076,2.219778
2024-12-03 14:49:30.437000+00:00,5.208786,-0.648351
2024-12-03 14:49:30.441000+00:00,5.582412,-2.274723
2024-12-03 14:49:30.445000+00:00,-2.648349,-0.428571
2024-12-03 14:49:30.449000+00:00,-5.362632,1.472526
2024-12-03 14:49:30.453000+00:00,1.934064,1.395603
2024-12-03 14:49:30.456000+00:00,5.318676,-1.329669
2024-12-03 14:49:30.460000+00:00,5.593401,-3.362634
2024-12-03 14:49:30.464000+00:00,1.351647,-1.582416
2024-12-03 14:49:30.468000+00:00,-4.956039,2.109888
2024-12-03 14:49:30.472000+00:00,2.395602,1.329669
2024-12-03 14:49:30.476000+00:00,5.351643,-0.32967
2024-12-03 14:49:30.480000+00:00,5.593401,-2.494503
2024-12-03 14:49:30.484000+00:00,4.890105,-2.153844
2024-12-03 14:49:30.488000+00:00,-3.901095,1.153845
2024-12-03 14:49:30.492000+00:00,1.241757,4.956039
2024-12-03 14:49:30.496000+00:00,5.241753,5.571423
2024-12-03 14:49:30.499000+00:00,5.593401,4.94505
2024-12-03 14:49:30.503000+00:00,5.208786,0.890109
2024-12-03 14:49:30.507000+00:00,-3.197799,-2.098899
2024-12-03 14:49:30.511000+00:00,-2.076921,1.417581
2024-12-03 14:49:30.515000+00:00,4.83516,5.208786
2024-12-03 14:49:30.519000+00:00,5.549445,5.593401
2024-12-03 14:49:30.523000+00:00,1.329669,1.065933
2024-12-03 14:49:30.527000+00:00,-5.021973,-4.868127
2024-12-03 14:49:30.531000+00:00,-5.483511,-3.901095
2024-12-03 14:49:30.535000+00:00,2.340657,3.879117
2024-12-03 14:49:30.539000+00:00,5.307687,5.461533
2024-12-03 14:49:30.542000+00:00,-1.296702,0.351648
2024-12-03 14:49:30.546000+00:00,-5.307687,-5.142852
2024-12-03 14:49:30.550000+00:00,-5.571423,-5.571423
2024-12-03 14:49:30.554000+00:00,1.494504,-1.494504
2024-12-03 14:49:30.558000+00:00,5.263731,3.494502
2024-12-03 14:49:30.562000+00:00,1.571427,-2.274723
2024-12-03 14:49:30.566000+00:00,-4.956039,-5.329665
2024-12-03 14:49:30.570000+00:00,-5.560434,-5.4945
2024-12-03 14:49:30.574000+00:00,0.197802,1.670328
2024-12-03 14:49:30.578000+00:00,5.16483,5.27472
2024-12-03 14:49:30.581000+00:00,2.296701,2.648349
2024-12-03 14:49:30.585000+00:00,-4.989006,-4.824171
2024-12-03 14:49:30.589000+00:00,-5.560434,-5.527467
2024-12-03 14:49:30.593000+00:00,-2.615382,-1.329669
2024-12-03 14:49:30.597000+00:00,4.61538,4.824171
2024-12-03 14:49:30.601000+00:00,1.230768,1.637361
2024-12-03 14:49:30.605000+00:00,-4.989006,-4.901094
2024-12-03 14:49:30.609000+00:00,-5.571423,-5.560434
2024-12-03 14:49:30.613000+00:00,-3.538458,-2.604393
2024-12-03 14:49:30.617000+00:00,4.351644,4.604391
2024-12-03 14:49:30.621000+00:00,4.043952,4.021974
2024-12-03 14:49:30.624000+00:00,-4.494501,-4.164831
2024-12-03 14:49:30.628000+00:00,-5.4945,-5.461533
2024-12-03 14:49:30.632000+00:00,-0.934065,0.098901
2024-12-03 14:49:30.636000+00:00,5.065929,5.109885
2024-12-03 14:49:30.640000+00:00,5.571423,5.527467
2024-12-03 14:49:30.644000+00:00,-1.351647,-1.483515
2024-12-03 14:49:30.648000+00:00,-5.263731,-5.241753
2024-12-03 14:49:30.652000+00:00,-3.131865,-2.285712
2024-12-03 14:49:30.656000+00:00,4.670325,4.747248
2024-12-03 14:49:30.660000+00:00,5.4945,5.329665
2024-12-03 14:49:30.664000+00:00,-2.736261,-3.098898
2024-12-03 14:49:30.667000+00:00,-5.505489,-5.516478
2024-12-03 14:49:30.671000+00:00,-3.351645,-3.62637
2024-12-03 14:49:30.675000+00:00,4.626369,4.28571
2024-12-03 14:49:30.679000+00:00,5.538456,5.461533
2024-12-03 14:49:30.683000+00:00,0.978021,-1.934064
2024-12-03 14:49:30.687000+00:00,-5.043951,-5.27472
2024-12-03 14:49:30.691000+00:00,-3.351645,-4.846149
2024-12-03 14:49:30.695000+00:00,4.648347,3.84615
2024-12-03 14:49:30.699000+00:00,5.538456,5.450544
2024-12-03 14:49:30.703000+00:00,0.593406,-0.692307
2024-12-03 14:49:30.706000+00:00,-4.989006,-5.109885
2024-12-03 14:49:30.710000+00:00,-4.736259,-5.27472
2024-12-03 14:49:30.714000+00:00,4.021974,3.538458
2024-12-03 14:49:30.718000+00:00,5.483511,5.439555
2024-12-03 14:49:30.722000+00:00,2.560437,2.296701
2024-12-03 14:49:30.726000+00:00,-4.758237,-4.780215
2024-12-03 14:49:30.730000+00:00,-5.087907,-5.27472
2024-12-03 14:49:30.734000+00:00,3.659337,3.439557
2024-12-03 14:49:30.738000+00:00,5.450544,5.417577
2024-12-03 14:49:30.742000+00:00,2.483514,2.714283
2024-12-03 14:49:30.746000+00:00,-4.626369,-4.571424
2024-12-03 14:49:30.749000+00:00,-5.450544,-5.505489
2024-12-03 14:49:30.753000+00:00,2.494503,2.296701
2024-12-03 14:49:30.757000+00:00,5.362632,5.307687
2024-12-03 14:49:30.761000+00:00,3.73626,3.923073
2024-12-03 14:49:30.765000+00:00,-4.538457,-4.516479
2024-12-03 14:49:30.769000+00:00,-5.527467,-5.516478
2024-12-03 14:49:30.773000+00:00,0.516483,0.197802
2024-12-03 14:49:30.777000+00:00,5.208786,5.153841
2024-12-03 14:49:30.781000+00:00,4.274721,4.571424
2024-12-03 14:49:30.785000+00:00,-3.999996,-4.010985
2024-12-03 14:49:30.789000+00:00,-5.483511,-5.472522
2024-12-03 14:49:30.792000+00:00,0.054945,0.021978
2024-12-03 14:49:30.796000+00:00,5.153841,5.131863
2024-12-03 14:49:30.800000+00:00,5.120874,5.527467
2024-12-03 14:49:30.804000+00:00,-2.956041,-3.274722
2024-12-03 14:49:30.808000+00:00,-5.395599,-5.417577
2024-12-03 14:49:30.812000+00:00,-0.956043,-1.593405
2024-12-03 14:49:30.816000+00:00,4.989006,4.94505
2024-12-03 14:49:30.820000+00:00,4.923072,5.571423
2024-12-03 14:49:30.824000+00:00,-0.923076,-1.142856
2024-12-03 14:49:30.828000+00:00,-4.021974,-5.230764
2024-12-03 14:49:30.831000+00:00,2.758239,0.230769
2024-12-03 14:49:30.835000+00:00,5.38461,5.131863
2024-12-03 14:49:30.839000+00:00,5.60439,5.582412
2024-12-03 14:49:30.843000+00:00,2.74725,0.208791
2024-12-03 14:49:30.847000+00:00,-3.395601,-5.087907
2024-12-03 14:49:30.851000+00:00,0.901098,-4.197798
2024-12-03 14:49:30.855000+00:00,5.241753,4.417578
2024-12-03 14:49:30.859000+00:00,5.582412,5.527467
2024-12-03 14:49:30.863000+00:00,2.263734,-1.087911
2024-12-03 14:49:30.867000+00:00,-4.846149,-5.219775
2024-12-03 14:49:30.871000+00:00,-3.725271,-5.285709
2024-12-03 14:49:30.874000+00:00,4.516479,3.604392
2024-12-03 14:49:30.878000+00:00,5.527467,5.439555
2024-12-03 14:49:30.882000+00:00,3.285711,1.97802
2024-12-03 14:49:30.886000+00:00,-4.61538,-4.901094
2024-12-03 14:49:30.890000+00:00,-4.472523,-4.967028
2024-12-03 14:49:30.894000+00:00,4.076919,3.824172
2024-12-03 14:49:30.898000+00:00,5.505489,5.483511
2024-12-03 14:49:30.902000+00:00,2.846151,2.846151
2024-12-03 14:49:30.906000+00:00,-4.791204,-4.769226
2024-12-03 14:49:30.910000+00:00,-5.527467,-5.538456
2024-12-03 14:49:30.914000+00:00,2.318679,1.571427
2024-12-03 14:49:30.917000+00:00,5.351643,5.263731
2024-12-03 14:49:30.921000+00:00,2.923074,2.472525
2024-12-03 14:49:30.925000+00:00,-4.802193,-4.846149
2024-12-03 14:49:30.929000+00:00,-5.549445,-5.549445
2024-12-03 14:49:30.933000+00:00,0.43956,-0.450549
2024-12-03 14:49:30.937000+00:00,5.263731,5.175819
2024-12-03 14:49:30.941000+00:00,3.494502,3.417579
2024-12-03 14:49:30.945000+00:00,-4.604391,-4.670325
2024-12-03 14:49:30.949000+00:00,-5.538456,-5.538456
2024-12-03 14:49:30.953000+00:00,-0.978021,-1.824174
2024-12-03 14:49:30.956000+00:00,5.032962,4.934061
2024-12-03 14:49:30.960000+00:00,4.94505,5.021973
2024-12-03 14:49:30.964000+00:00,-4.043952,-3.824172
2024-12-03 14:49:30.968000+00:00,-5.472522,-5.461533
2024-12-03 14:49:30.972000+00:00,-1.802196,-1.945053
2024-12-03 14:49:30.976000+00:00,5.087907,4.999995
2024-12-03 14:49:30.980000+00:00,4.934061,4.999995
2024-12-03 14:49:30.984000+00:00,-4.087908,-3.999996
2024-12-03 14:49:30.988000+00:00,-5.483511,-5.472522
2024-12-03 14:49:30.992000+00:00,-3.340656,-3.593403
2024-12-03 14:49:30.996000+00:00,4.736259,4.648347
2024-12-03 14:49:30.999000+00:00,5.538456,5.538456
2024-12-03 14:49:31.003000+00:00,-2.505492,-2.296701
2024-12-03 14:49:31.007000+00:00,-5.362632,-5.329665
2024-12-03 14:49:31.011000+00:00,-3.164832,-3.164832
2024-12-03 14:49:31.015000+00:00,4.890105,4.857138
2024-12-03 14:49:31.019000+00:00,5.538456,5.538456
2024-12-03 14:49:31.023000+00:00,-0.604395,0.340659
2024-12-03 14:49:31.027000+00:00,-5.186808,-5.098896
2024-12-03 14:49:31.031000+00:00,-3.868128,-3.725271
2024-12-03 14:49:31.035000+00:00,4.659336,4.593402
2024-12-03 14:49:31.039000+00:00,5.538456,5.538456
2024-12-03 14:49:31.042000+00:00,0.703296,1.626372
2024-12-03 14:49:31.046000+00:00,-5.109885,-4.94505
2024-12-03 14:49:31.050000+00:00,-4.857138,-4.824171
2024-12-03 14:49:31.054000+00:00,4.538457,4.527468
2024-12-03 14:49:31.058000+00:00,5.505489,5.505489
2024-12-03 14:49:31.062000+00:00,2.582415,3.131865
2024-12-03 14:49:31.066000+00:00,-4.901094,-4.780215
2024-12-03 14:49:31.070000+00:00,-5.516478,-5.527467
2024-12-03 14:49:31.074000+00:00,3.307689,3.285711
2024-12-03 14:49:31.078000+00:00,5.428566,5.417577
2024-12-03 14:49:31.081000+00:00,2.428569,3.18681
2024-12-03 14:49:31.085000+00:00,-4.890105,-4.791204
2024-12-03 14:49:31.089000+00:00,-5.560434,-5.549445
2024-12-03 14:49:31.093000+00:00,2.945052,2.934063
2024-12-03 14:49:31.097000+00:00,5.362632,5.340654
2024-12-03 14:49:31.101000+00:00,1.736262,2.780217
2024-12-03 14:49:31.105000+00:00,-4.978017,-4.824171
2024-12-03 14:49:31.109000+00:00,-5.560434,-5.549445
2024-12-03 14:49:31.113000+00:00,-4.296699,-1.197801
2024-12-03 14:49:31.117000+00:00,3.472524,4.999995
2024-12-03 14:49:31.121000+00:00,-2.659338,4.857138
2024-12-03 14:49:31.124000+00:00,-5.373621,-4.472523
2024-12-03 14:49:31.128000+00:00,-5.60439,-5.505489
2024-12-03 14:49:31.132000+00:00,-4.351644,0.472527
2024-12-03 14:49:31.136000+00:00,3.175821,5.087907
2024-12-03 14:49:31.140000+00:00,0.241758,5.571423
2024-12-03 14:49:31.144000+00:00,-5.098896,-3.857139
2024-12-03 14:49:31.148000+00:00,-5.571423,-5.450544
2024-12-03 14:49:31.152000+00:00,-0.890109,-4.626369
2024-12-03 14:49:31.156000+00:00,4.956039,4.516479
2024-12-03 14:49:31.160000+00:00,2.989008,5.4945
2024-12-03 14:49:31.164000+00:00,-4.472523,-3.923073
2024-12-03 14:49:31.167000+00:00,-3.879117,-5.472522
2024-12-03 14:49:31.171000+00:00,4.483512,-5.340654
2024-12-03 14:49:31.175000+00:00,5.505489,4.032963
2024-12-03 14:49:31.179000+00:00,5.219775,5.483511
2024-12-03 14:49:31.183000+00:00,-2.450547,-3.571425
2024-12-03 14:49:31.187000+00:00,-4.450545,-5.428566
2024-12-03 14:49:31.191000+00:00,3.274722,-5.593401
2024-12-03 14:49:31.195000+00:00,5.428566,3.978018
2024-12-03 14:49:31.199000+00:00,4.868127,5.472522
2024-12-03 14:49:31.203000+00:00,-3.131865,-0.681318
2024-12-03 14:49:31.206000+00:00,-5.351643,-5.186808
2024-12-03 14:49:31.210000+00:00,2.505492,-5.472522
2024-12-03 14:49:31.214000+00:00,5.296698,3.945051
2024-12-03 14:49:31.218000+00:00,5.395599,5.461533
2024-12-03 14:49:31.222000+00:00,-2.758239,0.835164
2024-12-03 14:49:31.226000+00:00,-5.362632,-5.032962
2024-12-03 14:49:31.230000+00:00,-2.032965,-5.571423
2024-12-03 14:49:31.234000+00:00,4.868127,3.505491
2024-12-03 14:49:31.238000+00:00,5.395599,5.428566
2024-12-03 14:49:31.242000+00:00,-2.021976,3.483513
2024-12-03 14:49:31.246000+00:00,-5.318676,-4.813182
2024-12-03 14:49:31.249000+00:00,-0.230769,-5.560434
2024-12-03 14:49:31.253000+00:00,4.989006,3.593403
2024-12-03 14:49:31.257000+00:00,5.296698,5.428566
2024-12-03 14:49:31.261000+00:00,-2.791206,5.593401
2024-12-03 14:49:31.265000+00:00,-5.38461,-3.989007
2024-12-03 14:49:31.269000+00:00,-3.791205,-5.461533
2024-12-03 14:49:31.273000+00:00,4.120875,3.208788
2024-12-03 14:49:31.277000+00:00,5.098896,5.406588
2024-12-03 14:49:31.281000+00:00,-3.054942,5.60439
2024-12-03 14:49:31.285000+00:00,-5.395599,-3.670326
2024-12-03 14:49:31.289000+00:00,-3.428568,-5.472522
2024-12-03 14:49:31.292000+00:00,4.252743,1.725273
2024-12-03 14:49:31.296000+00:00,5.4945,5.27472
2024-12-03 14:49:31.300000+00:00,-1.461537,5.593401
2024-12-03 14:49:31.304000+00:00,-5.27472,-3.417579
2024-12-03 14:49:31.308000+00:00,-5.362632,-5.428566
2024-12-03 14:49:31.312000+00:00,3.087909,0.252747
2024-12-03 14:49:31.316000+00:00,5.406588,5.131863
2024-12-03 14:49:31.320000+00:00,1.0989,5.571423
2024-12-03 14:49:31.324000+00:00,-5.010984,-3.219777
2024-12-03 14:49:31.328000+00:00,-4.494501,-5.428566
2024-12-03 14:49:31.331000+00:00,3.054942,-3.065931
2024-12-03 14:49:31.335000+00:00,5.406588,4.879116
2024-12-03 14:49:31.339000+00:00,3.461535,5.549445
2024-12-03 14:49:31.343000+00:00,-4.307688,-3.109887
2024-12-03 14:49:31.347000+00:00,-5.065929,-5.395599
2024-12-03 14:49:31.351000+00:00,2.582415,-5.219775
2024-12-03 14:49:31.355000+00:00,5.362632,4.472523
2024-12-03 14:49:31.359000+00:00,4.329666,5.516478
2024-12-03 14:49:31.363000+00:00,-3.934062,-1.736262
2024-12-03 14:49:31.367000+00:00,-5.175819,-5.329665
2024-12-03 14:49:31.371000+00:00,0.901098,-5.351643
2024-12-03 14:49:31.374000+00:00,5.230764,4.318677
2024-12-03 14:49:31.378000+00:00,3.197799,5.505489
2024-12-03 14:49:31.382000+00:00,-4.50549,1.197801
2024-12-03 14:49:31.386000+00:00,-5.527467,-4.989006
2024-12-03 14:49:31.390000+00:00,-2.725272,-5.527467
2024-12-03 14:49:31.394000+00:00,4.560435,4.164831
2024-12-03 14:49:31.398000+00:00,2.802195,5.483511
2024-12-03 14:49:31.402000+00:00,-4.483512,3.120876
2024-12-03 14:49:31.406000+00:00,-5.538456,-4.989006
2024-12-03 14:49:31.410000+00:00,-1.857141,-5.549445
2024-12-03 14:49:31.414000+00:00,4.824171,3.648348
2024-12-03 14:49:31.417000+00:00,5.05494,5.439555
2024-12-03 14:49:31.421000+00:00,-3.010986,4.340655
2024-12-03 14:49:31.425000+00:00,-5.38461,-4.703292
2024-12-03 14:49:31.429000+00:00,-3.219777,-5.538456
2024-12-03 14:49:31.433000+00:00,4.263732,2.571426
2024-12-03 14:49:31.437000+00:00,4.461534,5.351643
2024-12-03 14:49:31.441000+00:00,-3.582414,5.021973
2024-12-03 14:49:31.445000+00:00,-5.461533,-4.670325
2024-12-03 14:49:31.449000+00:00,-3.142854,-5.516478
2024-12-03 14:49:31.453000+00:00,4.527468,1.285713
2024-12-03 14:49:31.456000+00:00,5.527467,5.219775
2024-12-03 14:49:31.460000+00:00,2.813184,5.329665
2024-12-03 14:49:31.464000+00:00,-4.494501,-4.406589
2024-12-03 14:49:31.468000+00:00,-4.406589,-5.505489
2024-12-03 14:49:31.472000+00:00,3.780216,-1.329669
2024-12-03 14:49:31.476000+00:00,5.472522,5.021973
2024-12-03 14:49:31.480000+00:00,1.989009,5.571423
2024-12-03 14:49:31.484000+00:00,-4.901094,-4.252743
2024-12-03 14:49:31.488000+00:00,-3.032964,-5.472522
2024-12-03 14:49:31.492000+00:00,4.461534,-3.032964
2024-12-03 14:49:31.496000+00:00,5.527467,4.824171
2024-12-03 14:49:31.499000+00:00,4.142853,5.549445
2024-12-03 14:49:31.503000+00:00,-3.780216,-3.351645
2024-12-03 14:49:31.507000+00:00,-3.912084,-5.406588
2024-12-03 14:49:31.511000+00:00,3.857139,-4.527468
2024-12-03 14:49:31.515000+00:00,5.472522,4.670325
2024-12-03 14:49:31.519000+00:00,2.802195,5.538456
2024-12-03 14:49:31.523000+00:00,-4.736259,-2.868129
2024-12-03 14:49:31.527000+00:00,-5.230764,-5.329665
2024-12-03 14:49:31.531000+00:00,2.1978,-5.208786
2024-12-03 14:49:31.535000+00:00,5.318676,4.472523
2024-12-03 14:49:31.539000+00:00,3.84615,5.516478
2024-12-03 14:49:31.542000+00:00,-4.043952,-0.615384
2024-12-03 14:49:31.546000+00:00,-5.450544,-5.186808
2024-12-03 14:49:31.550000+00:00,0.274725,-5.505489
2024-12-03 14:49:31.554000+00:00,5.16483,4.131864
2024-12-03 14:49:31.558000+00:00,3.593403,5.483511
2024-12-03 14:49:31.562000+00:00,-4.571424,-0.230769
2024-12-03 14:49:31.566000+00:00,-5.516478,-5.021973
2024-12-03 14:49:31.570000+00:00,-2.692305,-5.571423
2024-12-03 14:49:31.574000+00:00,4.461534,3.802194
2024-12-03 14:49:31.578000+00:00,4.208787,5.450544
2024-12-03 14:49:31.581000+00:00,-3.604392,3.219777
2024-12-03 14:49:31.585000+00:00,-5.450544,-4.857138
2024-12-03 14:49:31.589000+00:00,-0.956043,-5.549445
2024-12-03 14:49:31.593000+00:00,4.967028,2.835162
2024-12-03 14:49:31.597000+00:00,5.010984,5.373621
2024-12-03 14:49:31.601000+00:00,-3.373623,2.912085
2024-12-03 14:49:31.605000+00:00,-5.395599,-4.747248
2024-12-03 14:49:31.609000+00:00,-3.230766,-5.538456
2024-12-03 14:49:31.613000+00:00,4.307688,1.615383
2024-12-03 14:49:31.617000+00:00,4.901094,5.27472
2024-12-03 14:49:31.621000+00:00,-3.373623,5.27472
2024-12-03 14:49:31.624000+00:00,-5.439555,-4.351644
2024-12-03 14:49:31.628000+00:00,-5.186808,-5.505489
2024-12-03 14:49:31.632000+00:00,3.010986,1.351647
2024-12-03 14:49:31.636000+00:00,5.38461,5.230764
2024-12-03 14:49:31.640000+00:00,-0.120879,5.582412
2024-12-03 14:49:31.644000+00:00,-5.032962,-3.505491
2024-12-03 14:49:31.648000+00:00,-3.989007,-5.417577
2024-12-03 14:49:31.652000+00:00,3.890106,-0.65934
2024-12-03 14:49:31.656000+00:00,5.472522,5.076918
2024-12-03 14:49:31.660000+00:00,1.780218,5.571423
2024-12-03 14:49:31.664000+00:00,-4.736259,-3.593403
2024-12-03 14:49:31.667000+00:00,-3.758238,-5.439555
2024-12-03 14:49:31.671000+00:00,4.142853,-3.95604
2024-12-03 14:49:31.675000+00:00,5.4945,4.681314
2024-12-03 14:49:31.679000+00:00,4.098897,5.549445
2024-12-03 14:49:31.683000+00:00,-3.043953,-3.054942
2024-12-03 14:49:31.687000+00:00,-3.593403,-5.38461
2024-12-03 14:49:31.691000+00:00,4.021974,-4.94505
2024-12-03 14:49:31.695000+00:00,5.483511,4.560435
2024-12-03 14:49:31.699000+00:00,3.087909,5.516478
2024-12-03 14:49:31.703000+00:00,-4.472523,-1.802196
2024-12-03 14:49:31.706000+00:00,-5.439555,-5.285709
2024-12-03 14:49:31.710000+00:00,1.571427,-5.538456
2024-12-03 14:49:31.714000+00:00,5.263731,4.164831
2024-12-03 14:49:31.718000+00:00,4.94505,5.516478
2024-12-03 14:49:31.722000+00:00,-1.252746,-0.142857
2024-12-03 14:49:31.726000+00:00,-3.010986,-5.142852
2024-12-03 14:49:31.730000+00:00,4.340655,-5.571423
2024-12-03 14:49:31.734000+00:00,5.516478,3.824172
2024-12-03 14:49:31.738000+00:00,5.615379,5.461533
2024-12-03 14:49:31.742000+00:00,0.32967,1.890108
2024-12-03 14:49:31.746000+00:00,-4.999995,-4.967028
2024-12-03 14:49:31.749000+00:00,0.120879,-5.560434
2024-12-03 14:49:31.753000+00:00,5.109885,3.439557
2024-12-03 14:49:31.757000+00:00,5.021973,5.461533
2024-12-03 14:49:31.761000+00:00,-2.032965,4.703292
2024-12-03 14:49:31.765000+00:00,-5.318676,-4.604391
2024-12-03 14:49:31.769000+00:00,-2.120877,-5.527467
2024-12-03 14:49:31.773000+00:00,4.692303,2.52747
2024-12-03 14:49:31.777000+00:00,4.879116,5.340654
2024-12-03 14:49:31.781000+00:00,-3.340656,4.681314
2024-12-03 14:49:31.785000+00:00,-5.417577,-4.560435
2024-12-03 14:49:31.789000+00:00,-5.417577,-5.527467
2024-12-03 14:49:31.792000+00:00,0.527472,0.516483
2024-12-03 14:49:31.796000+00:00,2.802195,5.219775
2024-12-03 14:49:31.800000+00:00,-3.945051,5.516478
2024-12-03 14:49:31.804000+00:00,-5.483511,-4.076919
2024-12-03 14:49:31.808000+00:00,-5.395599,-5.472522
2024-12-03 14:49:31.812000+00:00,2.109888,0.846153
2024-12-03 14:49:31.816000+00:00,5.296698,5.208786
2024-12-03 14:49:31.820000+00:00,-0.516483,5.582412
2024-12-03 14:49:31.824000+00:00,-5.197797,-3.252744
2024-12-03 14:49:31.828000+00:00,-5.560434,-5.417577
2024-12-03 14:49:31.831000+00:00,-0.175824,-2.593404
2024-12-03 14:49:31.835000+00:00,5.109885,5.032962
2024-12-03 14:49:31.839000+00:00,-0.395604,5.549445
2024-12-03 14:49:31.843000+00:00,-5.142852,-3.131865
2024-12-03 14:49:31.847000+00:00,-5.340654,-5.406588
2024-12-03 14:49:31.851000+00:00,2.406591,-4.769226
2024-12-03 14:49:31.855000+00:00,5.351643,4.549446
2024-12-03 14:49:31.859000+00:00,4.83516,5.516478
2024-12-03 14:49:31.863000+00:00,-2.131866,-2.692305
2024-12-03 14:49:31.867000+00:00,-4.043952,-5.362632
2024-12-03 14:49:31.871000+00:00,3.758238,-5.560434
2024-12-03 14:49:31.874000+00:00,5.4945,4.329666
2024-12-03 14:49:31.878000+00:00,5.362632,5.472522
2024-12-03 14:49:31.882000+00:00,-1.736262,-1.010988
2024-12-03 14:49:31.886000+00:00,-5.296698,-5.219775
2024-12-03 14:49:31.890000+00:00,-2.63736,-5.527467
2024-12-03 14:49:31.894000+00:00,4.384611,3.934062
2024-12-03 14:49:31.898000+00:00,4.912083,5.461533
2024-12-03 14:49:31.902000+00:00,-2.439558,1.802196
2024-12-03 14:49:31.906000+00:00,-5.351643,-4.978017
2024-12-03 14:49:31.910000+00:00,-4.483512,-5.527467
2024-12-03 14:49:31.914000+00:00,4.054941,4.021974
2024-12-03 14:49:31.917000+00:00,5.450544,5.450544
2024-12-03 14:49:31.921000+00:00,-0.890109,3.373623
2024-12-03 14:49:31.925000+00:00,-5.208786,-4.791204
2024-12-03 14:49:31.929000+00:00,-5.38461,-5.538456
2024-12-03 14:49:31.933000+00:00,2.30769,2.670327
2024-12-03 14:49:31.937000+00:00,5.329665,5.340654
2024-12-03 14:49:31.941000+00:00,0.153846,3.835161
2024-12-03 14:49:31.945000+00:00,-5.142852,-4.703292
2024-12-03 14:49:31.949000+00:00,-5.516478,-5.538456
2024-12-03 14:49:31.953000+00:00,2.186811,1.846152
2024-12-03 14:49:31.956000+00:00,5.285709,5.197797
2024-12-03 14:49:31.960000+00:00,2.230767,4.83516
2024-12-03 14:49:31.964000+00:00,-4.758237,-4.439556
2024-12-03 14:49:31.968000+00:00,-5.252742,-5.505489
2024-12-03 14:49:31.972000+00:00,2.010987,-0.780219
2024-12-03 14:49:31.976000+00:00,5.329665,5.065929
2024-12-03 14:49:31.980000+00:00,3.604392,5.318676
2024-12-03 14:49:31.984000+00:00,-4.241754,-4.06593
2024-12-03 14:49:31.988000+00:00,-5.505489,-5.483511
2024-12-03 14:49:31.992000+00:00,0.868131,-1.582416
2024-12-03 14:49:31.996000+00:00,5.120874,4.879116
2024-12-03 14:49:31.999000+00:00,4.472523,5.538456
2024-12-03 14:49:32.003000+00:00,-3.472524,-3.18681
2024-12-03 14:49:32.007000+00:00,-5.428566,-5.406588
2024-12-03 14:49:32.011000+00:00,-0.615384,-3.95604
2024-12-03 14:49:32.015000+00:00,5.05494,4.549446
2024-12-03 14:49:32.019000+00:00,5.175819,5.527467
2024-12-03 14:49:32.023000+00:00,-2.439558,-2.956041
2024-12-03 14:49:32.027000+00:00,-5.351643,-5.38461
2024-12-03 14:49:32.031000+00:00,-2.164833,-4.94505
2024-12-03 14:49:32.035000+00:00,4.527468,4.010985
2024-12-03 14:49:32.039000+00:00,5.208786,5.472522
2024-12-03 14:49:32.042000+00:00,-2.362635,-1.593405
2024-12-03 14:49:32.046000+00:00,-5.351643,-5.27472
2024-12-03 14:49:32.050000+00:00,-3.999996,-5.439555
2024-12-03 14:49:32.054000+00:00,3.659337,3.73626
2024-12-03 14:49:32.058000+00:00,5.05494,5.450544
2024-12-03 14:49:32.062000+00:00,-2.285712,0.43956
2024-12-03 14:49:32.066000+00:00,-5.318676,-5.098896
2024-12-03 14:49:32.070000+00:00,-4.483512,-5.406588
2024-12-03 14:49:32.074000+00:00,2.736261,3.274722
2024-12-03 14:49:32.078000+00:00,5.362632,5.417577
2024-12-03 14:49:32.081000+00:00,0.626373,2.505492
2024-12-03 14:49:32.085000+00:00,-4.956039,-4.824171
2024-12-03 14:49:32.089000+00:00,-4.527468,-5.549445
2024-12-03 14:49:32.093000+00:00,3.098898,2.296701
2024-12-03 14:49:32.097000+00:00,5.395599,5.307687
2024-12-03 14:49:32.101000+00:00,1.769229,2.725272
2024-12-03 14:49:32.105000+00:00,-4.791204,-4.846149
2024-12-03 14:49:32.109000+00:00,-4.747248,-5.560434
2024-12-03 14:49:32.113000+00:00,1.065933,-0.076923
2024-12-03 14:49:32.117000+00:00,5.230764,5.087907
2024-12-03 14:49:32.121000+00:00,2.835162,4.83516
2024-12-03 14:49:32.124000+00:00,-4.373622,-4.164831
2024-12-03 14:49:32.128000+00:00,-5.38461,-5.483511
2024-12-03 14:49:32.132000+00:00,-0.043956,0.098901
2024-12-03 14:49:32.136000+00:00,5.032962,5.142852
2024-12-03 14:49:32.140000+00:00,2.516481,5.329665
2024-12-03 14:49:32.144000+00:00,-4.351644,-3.681315
2024-12-03 14:49:32.148000+00:00,-5.263731,-5.483511
2024-12-03 14:49:32.152000+00:00,-0.197802,-0.824175
2024-12-03 14:49:32.156000+00:00,5.010984,5.065929
2024-12-03 14:49:32.160000+00:00,3.989007,5.538456
2024-12-03 14:49:32.164000+00:00,-2.681316,-2.956041
2024-12-03 14:49:32.167000+00:00,-5.087907,-5.38461
2024-12-03 14:49:32.171000+00:00,0.142857,-3.010986
2024-12-03 14:49:32.175000+00:00,5.043951,4.703292
2024-12-03 14:49:32.179000+00:00,4.692303,5.538456
2024-12-03 14:49:32.183000+00:00,-1.725273,-2.351646
2024-12-03 14:49:32.187000+00:00,-5.021973,-5.362632
2024-12-03 14:49:32.191000+00:00,-0.901098,-3.868128
2024-12-03 14:49:32.195000+00:00,4.791204,4.494501
2024-12-03 14:49:32.199000+00:00,4.538457,5.527467
2024-12-03 14:49:32.203000+00:00,-1.86813,-0.802197
2024-12-03 14:49:32.206000+00:00,-5.296698,-5.175819
2024-12-03 14:49:32.210000+00:00,-2.769228,-4.890105
2024-12-03 14:49:32.214000+00:00,3.439557,4.054941
2024-12-03 14:49:32.218000+00:00,4.318677,5.483511
2024-12-03 14:49:32.222000+00:00,-1.197801,0.802197
2024-12-03 14:49:32.226000+00:00,-5.230764,-5.153841
2024-12-03 14:49:32.230000+00:00,-3.043953,-5.340654
2024-12-03 14:49:32.234000+00:00,2.329668,3.604392
2024-12-03 14:49:32.238000+00:00,3.219777,5.439555
2024-12-03 14:49:32.242000+00:00,-1.703295,2.208789
2024-12-03 14:49:32.246000+00:00,-5.263731,-4.890105
2024-12-03 14:49:32.249000+00:00,-4.06593,-5.527467
2024-12-03 14:49:32.253000+00:00,1.175823,2.74725
2024-12-03 14:49:32.257000+00:00,3.340656,5.362632
2024-12-03 14:49:32.261000+00:00,-0.263736,3.758238
2024-12-03 14:49:32.265000+00:00,-4.241754,-4.670325
2024-12-03 14:49:32.269000+00:00,-2.461536,-5.516478
2024-12-03 14:49:32.273000+00:00,3.285711,1.999998
2024-12-03 14:49:32.277000+00:00,5.395599,5.285709
2024-12-03 14:49:32.281000+00:00,2.901096,4.241754
2024-12-03 14:49:32.285000+00:00,-1.241757,-4.307688
2024-12-03 14:49:32.289000+00:00,-0.65934,-5.505489
2024-12-03 14:49:32.292000+00:00,4.06593,0.483516
2024-12-03 14:49:32.296000+00:00,5.4945,5.175819
2024-12-03 14:49:32.300000+00:00,3.197799,5.428566
2024-12-03 14:49:32.304000+00:00,-2.076921,-3.560436
2024-12-03 14:49:32.308000+00:00,-2.74725,-5.38461
2024-12-03 14:49:32.312000+00:00,1.0989,0.890109
2024-12-03 14:49:32.316000+00:00,4.06593,5.208786
2024-12-03 14:49:32.320000+00:00,1.670328,5.582412
2024-12-03 14:49:32.324000+00:00,-3.142854,-0.956043
2024-12-03 14:49:32.328000+00:00,-4.3956,-5.208786
2024-12-03 14:49:32.331000+00:00,-0.384615,-0.230769
2024-12-03 14:49:32.335000+00:00,3.51648,5.109885
2024-12-03 14:49:32.339000+00:00,2.252745,5.582412
2024-12-03 14:49:32.343000+00:00,-2.681316,-0.670329
2024-12-03 14:49:32.347000+00:00,-4.06593,-5.098896
2024-12-03 14:49:32.351000+00:00,-0.505494,-2.483514
2024-12-03 14:49:32.355000+00:00,3.703293,4.802193
2024-12-03 14:49:32.359000+00:00,3.032964,5.549445
2024-12-03 14:49:32.363000+00:00,-1.472526,0.10989
2024-12-03 14:49:32.367000+00:00,-3.879117,-5.120874
2024-12-03 14:49:32.371000+00:00,-0.76923,-4.307688
2024-12-03 14:49:32.374000+00:00,3.681315,4.153842
2024-12-03 14:49:32.378000+00:00,3.879117,5.4945
2024-12-03 14:49:32.382000+00:00,-0.615384,0.153846
2024-12-03 14:49:32.386000+00:00,-2.780217,-5.021973
2024-12-03 14:49:32.390000+00:00,-0.175824,-5.010984
2024-12-03 14:49:32.394000+00:00,4.252743,3.571425
2024-12-03 14:49:32.398000+00:00,4.714281,5.439555
2024-12-03 14:49:32.402000+00:00,0.637362,1.615383
2024-12-03 14:49:32.406000+00:00,-2.802195,-4.901094
2024-12-03 14:49:32.410000+00:00,-1.032966,-5.527467
2024-12-03 14:49:32.414000+00:00,3.384612,2.252745
2024-12-03 14:49:32.417000+00:00,4.362633,5.329665
2024-12-03 14:49:32.421000+00:00,0.043956,1.307691
2024-12-03 14:49:32.425000+00:00,-4.472523,-4.868127
2024-12-03 14:49:32.429000+00:00,-1.923075,-5.549445
2024-12-03 14:49:32.433000+00:00,2.263734,0.956043
2024-12-03 14:49:32.437000+00:00,4.06593,5.208786
2024-12-03 14:49:32.441000+00:00,0.362637,3.780216
2024-12-03 14:49:32.445000+00:00,-3.604392,-4.439556
2024-12-03 14:49:32.449000+00:00,-3.098898,-5.516478
2024-12-03 14:49:32.453000+00:00,1.120878,0.758241
2024-12-03 14:49:32.456000+00:00,3.252744,5.197797
2024-12-03 14:49:32.460000+00:00,0.307692,4.417578
2024-12-03 14:49:32.464000+00:00,-3.142854,-3.758238
2024-12-03 14:49:32.468000+00:00,-3.087909,-5.461533
2024-12-03 14:49:32.472000+00:00,0.802197,-0.21978
2024-12-03 14:49:32.476000+00:00,3.307689,5.076918
2024-12-03 14:49:32.480000+00:00,0.98901,5.263731
2024-12-03 14:49:32.484000+00:00,-2.769228,-3.318678
2024-12-03 14:49:32.488000+00:00,-2.846151,-5.406588
2024-12-03 14:49:32.492000+00:00,1.164834,-1.241757
2024-12-03 14:49:32.496000+00:00,4.637358,4.999995
2024-12-03 14:49:32.499000+00:00,2.912085,5.4945
2024-12-03 14:49:32.503000+00:00,-1.032966,-2.098899
2024-12-03 14:49:32.507000+00:00,-2.164833,-5.307687
2024-12-03 14:49:32.511000+00:00,1.42857,-2.923074
2024-12-03 14:49:32.515000+00:00,5.05494,4.681314
2024-12-03 14:49:32.519000+00:00,3.879117,5.538456
2024-12-03 14:49:32.523000+00:00,-0.692307,-1.186812
2024-12-03 14:49:32.527000+00:00,-3.428568,-5.230764
2024-12-03 14:49:32.531000+00:00,-0.604395,-4.428567
2024-12-03 14:49:32.535000+00:00,3.109887,4.010985
2024-12-03 14:49:32.539000+00:00,2.329668,5.4945
2024-12-03 14:49:32.542000+00:00,-1.626372,0.054945
2024-12-03 14:49:32.546000+00:00,-3.857139,-5.076918
2024-12-03 14:49:32.550000+00:00,-1.494504,-4.373622
2024-12-03 14:49:32.554000+00:00,2.406591,4.142853
2024-12-03 14:49:32.558000+00:00,2.483514,5.483511
2024-12-03 14:49:32.562000+00:00,-1.53846,1.505493
2024-12-03 14:49:32.566000+00:00,-4.516479,-4.956039
2024-12-03 14:49:32.570000+00:00,-2.901096,-5.472522
2024-12-03 14:49:32.574000+00:00,0.824175,2.340657
2024-12-03 14:49:32.578000+00:00,1.186812,5.373621
2024-12-03 14:49:32.581000+00:00,-2.1978,0.725274
2024-12-03 14:49:32.585000+00:00,-5.142852,-5.05494
2024-12-03 14:49:32.589000+00:00,-3.505491,-5.571423
2024-12-03 14:49:32.593000+00:00,0.593406,1.120878
2024-12-03 14:49:32.597000+00:00,2.153844,5.219775
2024-12-03 14:49:32.601000+00:00,-0.956043,2.868129
2024-12-03 14:49:32.605000+00:00,-4.131864,-4.692303
2024-12-03 14:49:32.609000+00:00,-2.582415,-5.538456
2024-12-03 14:49:32.613000+00:00,1.802196,0.65934
2024-12-03 14:49:32.617000+00:00,3.527469,5.241753
2024-12-03 14:49:32.621000+00:00,0.604395,4.417578
2024-12-03 14:49:32.624000+00:00,-3.582414,-3.989007
2024-12-03 14:49:32.628000+00:00,-3.2967,-5.472522
2024-12-03 14:49:32.632000+00:00,0.428571,-0.10989
2024-12-03 14:49:32.636000+00:00,2.483514,5.087907
2024-12-03 14:49:32.640000+00:00,0.164835,4.857138
2024-12-03 14:49:32.644000+00:00,-3.62637,-3.73626
2024-12-03 14:49:32.648000+00:00,-3.780216,-5.439555
2024-12-03 14:49:32.652000+00:00,0.076923,-1.857141
2024-12-03 14:49:32.656000+00:00,3.153843,5.021973
2024-12-03 14:49:32.660000+00:00,1.439559,5.472522
2024-12-03 14:49:32.664000+00:00,-2.1978,-2.208789
2024-12-03 14:49:32.667000+00:00,-2.681316,-5.296698
2024-12-03 14:49:32.671000+00:00,0.890109,-2.098899
2024-12-03 14:49:32.675000+00:00,4.164831,4.802193
2024-12-03 14:49:32.679000+00:00,2.725272,5.505489
2024-12-03 14:49:32.683000+00:00,-1.31868,-1.703295
2024-12-03 14:49:32.687000+00:00,-2.912085,-5.27472
2024-12-03 14:49:32.691000+00:00,-0.318681,-3.945051
2024-12-03 14:49:32.695000+00:00,2.725272,4.450545
2024-12-03 14:49:32.699000+00:00,0.65934,5.4945
2024-12-03 14:49:32.703000+00:00,-1.703295,0.736263
2024-12-03 14:49:32.706000+00:00,-3.637359,-4.999995
2024-12-03 14:49:32.710000+00:00,-1.417581,-4.076919
2024-12-03 14:49:32.714000+00:00,1.593405,4.197798
2024-12-03 14:49:32.718000+00:00,1.64835,5.4945
2024-12-03 14:49:32.722000+00:00,-1.406592,0.450549
2024-12-03 14:49:32.726000+00:00,-3.131865,-5.076918
2024-12-03 14:49:32.730000+00:00,-0.912087,-5.428566
2024-12-03 14:49:32.734000+00:00,2.989008,2.96703
2024-12-03 14:49:32.738000+00:00,3.417579,5.340654
2024-12-03 14:49:32.742000+00:00,0.241758,0.054945
2024-12-03 14:49:32.746000+00:00,-2.318679,-5.120874
2024-12-03 14:49:32.749000+00:00,-0.857142,-5.527467
2024-12-03 14:49:32.753000+00:00,2.604393,1.384614
2024-12-03 14:49:32.757000+00:00,3.07692,5.252742
2024-12-03 14:49:32.761000+00:00,0.175824,1.593405
2024-12-03 14:49:32.765000+00:00,-3.230766,-4.890105
2024-12-03 14:49:32.769000+00:00,-2.219778,-5.549445
2024-12-03 14:49:32.773000+00:00,1.923075,1.472526
2024-12-03 14:49:32.777000+00:00,2.780217,5.186808
2024-12-03 14:49:32.781000+00:00,-0.043956,3.549447
2024-12-03 14:49:32.785000+00:00,-2.703294,-4.263732
2024-12-03 14:49:32.789000+00:00,-1.593405,-5.4945
2024-12-03 14:49:32.792000+00:00,1.879119,0.604395
2024-12-03 14:49:32.796000+00:00,3.659337,5.175819
2024-12-03 14:49:32.800000+00:00,1.527471,5.131863
2024-12-03 14:49:32.804000+00:00,-2.08791,-2.999997
2024-12-03 14:49:32.808000+00:00,-1.494504,-5.38461
2024-12-03 14:49:32.812000+00:00,1.604394,0.395604
2024-12-03 14:49:32.816000+00:00,2.868129,5.065929
2024-12-03 14:49:32.820000+00:00,0.76923,5.252742
2024-12-03 14:49:32.824000+00:00,-3.109887,-2.934063
2024-12-03 14:49:32.828000+00:00,-3.802194,-5.38461
2024-12-03 14:49:32.831000+00:00,-0.307692,-2.846151
2024-12-03 14:49:32.835000+00:00,2.208789,4.549446
2024-12-03 14:49:32.839000+00:00,1.032966,5.131863
2024-12-03 14:49:32.843000+00:00,-2.428569,-2.989008
2024-12-03 14:49:32.847000+00:00,-3.912084,-5.38461
2024-12-03 14:49:32.851000+00:00,0.032967,-3.593403
2024-12-03 14:49:32.855000+00:00,2.846151,3.84615
2024-12-03 14:49:32.859000+00:00,2.153844,5.38461
2024-12-03 14:49:32.863000+00:00,-1.296702,-2.131866
2024-12-03 14:49:32.867000+00:00,-3.274722,-5.296698
2024-12-03 14:49:32.871000+00:00,-0.857142,-4.769226
2024-12-03 14:49:32.874000+00:00,2.461536,3.505491
2024-12-03 14:49:32.878000+00:00,1.747251,5.428566
2024-12-03 14:49:32.882000+00:00,-1.681317,0.153846
2024-12-03 14:49:32.886000+00:00,-3.593403,-5.098896
2024-12-03 14:49:32.890000+00:00,-1.670328,-4.72527
2024-12-03 14:49:32.894000+00:00,1.97802,3.241755
2024-12-03 14:49:32.898000+00:00,1.791207,5.406588
2024-12-03 14:49:32.902000+00:00,-1.582416,1.505493
2024-12-03 14:49:32.906000+00:00,-4.296699,-4.934061
2024-12-03 14:49:32.910000+00:00,-1.791207,-5.351643
2024-12-03 14:49:32.914000+00:00,1.637361,2.296701
2024-12-03 14:49:32.917000+00:00,2.813184,5.307687
2024-12-03 14:49:32.921000+00:00,0.901098,2.560437
2024-12-03 14:49:32.925000+00:00,-2.032965,-4.670325
2024-12-03 14:49:32.929000+00:00,-0.065934,-5.505489
2024-12-03 14:49:32.933000+00:00,4.076919,-0.373626
2024-12-03 14:49:32.937000+00:00,5.483511,4.956039
2024-12-03 14:49:32.941000+00:00,4.043952,0.483516
2024-12-03 14:49:32.945000+00:00,2.52747,-5.05494
2024-12-03 14:49:32.949000+00:00,2.901096,-5.560434
2024-12-03 14:49:32.953000+00:00,5.16483,-1.824174
2024-12-03 14:49:32.956000+00:00,5.560434,4.791204
2024-12-03 14:49:32.960000+00:00,3.40659,4.450545
2024-12-03 14:49:32.964000+00:00,-1.219779,-3.648348
2024-12-03 14:49:32.968000+00:00,-1.912086,-5.16483
2024-12-03 14:49:32.972000+00:00,-0.43956,1.010988
2024-12-03 14:49:32.976000+00:00,2.593404,5.219775
2024-12-03 14:49:32.980000+00:00,0.384615,5.428566
2024-12-03 14:49:32.984000+00:00,-2.791206,-1.285713
2024-12-03 14:49:32.988000+00:00,-3.351645,-5.241753
2024-12-03 14:49:32.992000+00:00,-0.780219,-0.516483
2024-12-03 14:49:32.996000+00:00,1.75824,5.021973
2024-12-03 14:49:32.999000+00:00,0.274725,5.4945
2024-12-03 14:49:33.003000+00:00,-2.934063,-1.043955
2024-12-03 14:49:33.007000+00:00,-4.164831,-5.252742
2024-12-03 14:49:33.011000+00:00,-1.263735,-1.692306
2024-12-03 14:49:33.015000+00:00,1.879119,4.846149
2024-12-03 14:49:33.019000+00:00,0.791208,5.549445
2024-12-03 14:49:33.023000+00:00,-2.681316,0.43956
2024-12-03 14:49:33.027000+00:00,-3.197799,-5.043951
2024-12-03 14:49:33.031000+00:00,-0.615384,-3.417579
2024-12-03 14:49:33.035000+00:00,2.472525,4.296699
2024-12-03 14:49:33.039000+00:00,2.263734,5.505489
2024-12-03 14:49:33.042000+00:00,-1.142856,0.87912
2024-12-03 14:49:33.046000+00:00,-2.659338,-5.05494
2024-12-03 14:49:33.050000+00:00,-0.208791,-4.054941
2024-12-03 14:49:33.054000+00:00,2.868129,4.06593
2024-12-03 14:49:33.058000+00:00,2.692305,5.472522
2024-12-03 14:49:33.062000+00:00,-0.538461,2.08791
2024-12-03 14:49:33.066000+00:00,-2.241756,-4.747248
2024-12-03 14:49:33.070000+00:00,-0.582417,-4.516479
2024-12-03 14:49:33.074000+00:00,2.406591,3.923073
2024-12-03 14:49:33.078000+00:00,2.736261,5.461533
2024-12-03 14:49:33.081000+00:00,-0.32967,3.197799
2024-12-03 14:49:33.085000+00:00,-2.945052,-4.670325
2024-12-03 14:49:33.089000+00:00,-1.75824,-4.83516
2024-12-03 14:49:33.093000+00:00,1.64835,3.274722
2024-12-03 14:49:33.097000+00:00,2.692305,5.417577
2024-12-03 14:49:33.101000+00:00,-0.43956,3.637359
2024-12-03 14:49:33.105000+00:00,-3.703293,-4.153842
2024-12-03 14:49:33.109000+00:00,-2.945052,-5.329665
2024-12-03 14:49:33.113000+00:00,0.846153,2.175822
2024-12-03 14:49:33.117000+00:00,2.384613,5.296698
2024-12-03 14:49:33.121000+00:00,-0.098901,4.439556
2024-12-03 14:49:33.124000+00:00,-3.780216,-4.098897
2024-12-03 14:49:33.128000+00:00,-3.230766,-5.428566
2024-12-03 14:49:33.132000+00:00,0.626373,0.835164
2024-12-03 14:49:33.136000+00:00,2.769228,5.208786
2024-12-03 14:49:33.140000+00:00,0.560439,5.186808
2024-12-03 14:49:33.144000+00:00,-2.626371,-2.901096
2024-12-03 14:49:33.148000+00:00,-2.395602,-5.38461
2024-12-03 14:49:33.152000+00:00,0.846153,-1.571427
2024-12-03 14:49:33.156000+00:00,3.208788,4.83516
2024-12-03 14:49:33.160000+00:00,1.384614,4.978017
2024-12-03 14:49:33.164000+00:00,-2.351646,-3.670326
2024-12-03 14:49:33.167000+00:00,-2.934063,-5.406588
2024-12-03 14:49:33.171000+00:00,0.186813,-2.494503
2024-12-03 14:49:33.175000+00:00,3.054942,4.703292
2024-12-03 14:49:33.179000+00:00,1.879119,5.483511
2024-12-03 14:49:33.183000+00:00,-1.75824,-1.604394
2024-12-03 14:49:33.187000+00:00,-2.725272,-5.263731
2024-12-03 14:49:33.191000+00:00,0.384615,-3.373623
2024-12-03 14:49:33.195000+00:00,3.428568,4.406589
2024-12-03 14:49:33.199000+00:00,2.604393,5.483511
2024-12-03 14:49:33.203000+00:00,-1.351647,-1.846152
2024-12-03 14:49:33.206000+00:00,-2.769228,-5.230764
2024-12-03 14:49:33.210000+00:00,-0.197802,-4.483512
2024-12-03 14:49:33.214000+00:00,3.219777,3.725271
2024-12-03 14:49:33.218000+00:00,3.373623,5.450544
2024-12-03 14:49:33.222000+00:00,-0.241758,-0.593406
2024-12-03 14:49:33.226000+00:00,-2.714283,-5.153841
2024-12-03 14:49:33.230000+00:00,-0.714285,-5.05494
2024-12-03 14:49:33.234000+00:00,2.912085,3.340656
2024-12-03 14:49:33.238000+00:00,3.472524,5.406588
2024-12-03 14:49:33.242000+00:00,-0.065934,0.692307
2024-12-03 14:49:33.246000+00:00,-3.560436,-4.890105
2024-12-03 14:49:33.249000+00:00,-0.615384,-5.208786
2024-12-03 14:49:33.253000+00:00,2.923074,2.505492
2024-12-03 14:49:33.257000+00:00,3.637359,5.329665
2024-12-03 14:49:33.261000+00:00,0.164835,1.945053
2024-12-03 14:49:33.265000+00:00,-3.18681,-4.83516
2024-12-03 14:49:33.269000+00:00,-2.549448,-5.472522
2024-12-03 14:49:33.273000+00:00,1.032966,2.08791
2024-12-03 14:49:33.277000+00:00,2.428569,5.307687
2024-12-03 14:49:33.281000+00:00,-0.747252,3.769227
2024-12-03 14:49:33.285000+00:00,-3.659337,-3.978018
2024-12-03 14:49:33.289000+00:00,-3.142854,-5.38461
2024-12-03 14:49:33.292000+00:00,0.604395,1.582416
2024-12-03 14:49:33.296000+00:00,2.505492,5.263731
2024-12-03 14:49:33.300000+00:00,0.208791,4.582413
2024-12-03 14:49:33.304000+00:00,-2.494503,-3.615381
2024-12-03 14:49:33.308000+00:00,-2.560437,-5.439555
2024-12-03 14:49:33.312000+00:00,0.802197,-0.164835
2024-12-03 14:49:33.316000+00:00,3.087909,5.065929
2024-12-03 14:49:33.320000+00:00,0.923076,4.637358
2024-12-03 14:49:33.324000+00:00,-2.648349,-3.362634
2024-12-03 14:49:33.328000+00:00,-3.197799,-5.406588
2024-12-03 14:49:33.331000+00:00,0.307692,-2.043954
2024-12-03 14:49:33.335000+00:00,2.780217,4.802193
2024-12-03 14:49:33.339000+00:00,1.384614,5.208786
2024-12-03 14:49:33.343000+00:00,-2.131866,-3.010986
2024-12-03 14:49:33.347000+00:00,-2.824173,-5.38461
2024-12-03 14:49:33.351000+00:00,0.340659,-3.670326
2024-12-03 14:49:33.355000+00:00,3.329667,4.274721
2024-12-03 14:49:33.359000+00:00,2.186811,5.208786
2024-12-03 14:49:33.363000+00:00,-1.153845,-2.285712
2024-12-03 14:49:33.367000+00:00,-2.824173,-5.329665
2024-12-03 14:49:33.371000+00:00,-0.384615,-4.318677
2024-12-03 14:49:33.374000+00:00,2.846151,3.945051
2024-12-03 14:49:33.378000+00:00,2.329668,5.472522
2024-12-03 14:49:33.382000+00:00,-1.373625,-0.802197
2024-12-03 14:49:33.386000+00:00,-3.219777,-5.197797
2024-12-03 14:49:33.390000+00:00,-1.043955,-4.802193
2024-12-03 14:49:33.394000+00:00,2.076921,3.615381
2024-12-03 14:49:33.398000+00:00,2.120877,5.461533
2024-12-03 14:49:33.402000+00:00,-0.967032,0.824175
2024-12-03 14:49:33.406000+00:00,-3.241755,-5.021973
2024-12-03 14:49:33.410000+00:00,-1.131867,-5.208786
2024-12-03 14:49:33.414000+00:00,2.549448,2.681316
2024-12-03 14:49:33.417000+00:00,3.087909,5.362632
2024-12-03 14:49:33.421000+00:00,0.032967,1.219779
2024-12-03 14:49:33.425000+00:00,-2.274723,-4.934061
2024-12-03 14:49:33.429000+00:00,-0.857142,-5.527467
2024-12-03 14:49:33.433000+00:00,2.714283,1.219779
2024-12-03 14:49:33.437000+00:00,4.076919,5.27472
2024-12-03 14:49:33.441000+00:00,1.42857,1.714284
2024-12-03 14:49:33.445000+00:00,-1.131867,-4.879116
2024-12-03 14:49:33.449000+00:00,-0.010989,-5.549445
2024-12-03 14:49:33.453000+00:00,3.307689,-0.813186
2024-12-03 14:49:33.456000+00:00,4.461534,4.978017
2024-12-03 14:49:33.460000+00:00,2.186811,2.846151
2024-12-03 14:49:33.464000+00:00,-1.065933,-4.626369
2024-12-03 14:49:33.468000+00:00,-0.747252,-5.538456
2024-12-03 14:49:33.472000+00:00,2.285712,-2.186811
2024-12-03 14:49:33.476000+00:00,3.714282,4.846149
2024-12-03 14:49:33.480000+00:00,1.571427,3.109887
2024-12-03 14:49:33.484000+00:00,-1.384614,-4.461534
2024-12-03 14:49:33.488000+00:00,-1.494504,-5.516478
2024-12-03 14:49:33.492000+00:00,1.461537,-2.538459
2024-12-03 14:49:33.496000+00:00,3.51648,4.538457
2024-12-03 14:49:33.499000+00:00,1.890108,4.362633
2024-12-03 14:49:33.503000+00:00,-1.53846,-3.934062
2024-12-03 14:49:33.507000+00:00,-2.120877,-5.461533
2024-12-03 14:49:33.511000+00:00,0.340659,-3.681315
2024-12-03 14:49:33.515000+00:00,2.252745,4.3956
2024-12-03 14:49:33.519000+00:00,-0.560439,4.83516
2024-12-03 14:49:33.523000+00:00,-2.428569,-1.516482
2024-12-03 14:49:33.527000+00:00,-3.813183,-5.263731
2024-12-03 14:49:33.531000+00:00,-0.725274,-3.868128
2024-12-03 14:49:33.535000+00:00,2.285712,3.999996
2024-12-03 14:49:33.539000+00:00,1.516482,4.956039
2024-12-03 14:49:33.542000+00:00,-1.373625,-2.901096
2024-12-03 14:49:33.546000+00:00,-3.340656,-5.38461
2024-12-03 14:49:33.550000+00:00,-1.20879,-5.285709
2024-12-03 14:49:33.554000+00:00,3.175821,1.637361
2024-12-03 14:49:33.558000+00:00,4.450545,4.351644
2024-12-03 14:49:33.562000+00:00,2.703294,-2.560437
2024-12-03 14:49:33.566000+00:00,1.230768,-5.351643
2024-12-03 14:49:33.570000+00:00,2.285712,-5.05494
2024-12-03 14:49:33.574000+00:00,4.714281,3.032964
2024-12-03 14:49:33.578000+00:00,4.428567,5.395599
2024-12-03 14:49:33.581000+00:00,1.087911,2.252745
2024-12-03 14:49:33.585000+00:00,-1.714284,-4.648347
2024-12-03 14:49:33.589000+00:00,-0.582417,-4.769226
2024-12-03 14:49:33.593000+00:00,2.769228,3.604392
2024-12-03 14:49:33.597000+00:00,3.307689,5.406588
2024-12-03 14:49:33.601000+00:00,0.351648,4.428567
2024-12-03 14:49:33.605000+00:00,-2.714283,-2.659338
2024-12-03 14:49:33.609000+00:00,-2.285712,-3.62637
2024-12-03 14:49:33.613000+00:00,0.32967,3.967029
2024-12-03 14:49:33.617000+00:00,1.186812,5.472522
2024-12-03 14:49:33.621000+00:00,-1.75824,5.351643
2024-12-03 14:49:33.624000+00:00,-5.076918,-1.142856
2024-12-03 14:49:33.628000+00:00,-5.153841,-4.098897
2024-12-03 14:49:33.632000+00:00,-2.109888,3.758238
2024-12-03 14:49:33.636000+00:00,-0.637362,5.417577
2024-12-03 14:49:33.640000+00:00,-2.560437,5.483511
2024-12-03 14:49:33.644000+00:00,-5.263731,-0.516483
2024-12-03 14:49:33.648000+00:00,-5.296698,-4.296699
2024-12-03 14:49:33.652000+00:00,-2.703294,2.692305
2024-12-03 14:49:33.656000+00:00,-0.846153,5.362632
2024-12-03 14:49:33.660000+00:00,-2.428569,5.593401
2024-12-03 14:49:33.664000+00:00,-5.208786,0.945054
2024-12-03 14:49:33.667000+00:00,-5.483511,-4.340655
2024-12-03 14:49:33.671000+00:00,-2.615382,2.142855
2024-12-03 14:49:33.675000+00:00,-0.384615,5.252742
2024-12-03 14:49:33.679000+00:00,-1.164834,5.582412
2024-12-03 14:49:33.683000+00:00,-3.978018,0.648351
2024-12-03 14:49:33.687000+00:00,-4.769226,-4.94505
2024-12-03 14:49:33.691000+00:00,-2.494503,-0.758241
2024-12-03 14:49:33.695000+00:00,-0.054945,5.010984
2024-12-03 14:49:33.699000+00:00,-0.571428,5.571423
2024-12-03 14:49:33.703000+00:00,-3.120876,1.582416
2024-12-03 14:49:33.706000+00:00,-3.692304,-4.780215
2024-12-03 14:49:33.710000+00:00,-0.747252,-1.53846
2024-12-03 14:49:33.714000+00:00,2.175822,4.703292
2024-12-03 14:49:33.718000+00:00,2.472525,5.538456
2024-12-03 14:49:33.722000+00:00,-0.076923,0.813186
2024-12-03 14:49:33.726000+00:00,-1.296702,-4.978017
2024-12-03 14:49:33.730000+00:00,0.494505,-3.989007
2024-12-03 14:49:33.734000+00:00,2.659338,4.032963
2024-12-03 14:49:33.738000+00:00,2.296701,5.472522
2024-12-03 14:49:33.742000+00:00,-0.032967,0.131868
2024-12-03 14:49:33.746000+00:00,-1.42857,-5.098896
2024-12-03 14:49:33.749000+00:00,0.021978,-5.307687
2024-12-03 14:49:33.753000+00:00,2.703294,1.461537
2024-12-03 14:49:33.757000+00:00,2.989008,5.252742
2024-12-03 14:49:33.761000+00:00,0.417582,0.802197
2024-12-03 14:49:33.765000+00:00,-1.153845,-5.021973
2024-12-03 14:49:33.769000+00:00,0.230769,-5.549445
2024-12-03 14:49:33.773000+00:00,3.571425,0.351648
2024-12-03 14:49:33.777000+00:00,4.28571,5.142852
2024-12-03 14:49:33.781000+00:00,1.703295,1.879119
2024-12-03 14:49:33.785000+00:00,-0.978021,-4.758237
2024-12-03 14:49:33.789000+00:00,-0.076923,-5.549445
2024-12-03 14:49:33.792000+00:00,1.846152,-1.637361
2024-12-03 14:49:33.796000+00:00,4.857138,4.813182
2024-12-03 14:49:33.800000+00:00,2.340657,2.890107
2024-12-03 14:49:33.804000+00:00,-0.87912,-4.472523
2024-12-03 14:49:33.808000+00:00,-1.153845,-5.516478
2024-12-03 14:49:33.812000+00:00,1.736262,-1.42857
2024-12-03 14:49:33.816000+00:00,2.96703,4.868127
2024-12-03 14:49:33.820000+00:00,1.219779,4.428567
2024-12-03 14:49:33.824000+00:00,-1.835163,-3.890106
2024-12-03 14:49:33.828000+00:00,-1.560438,-5.483511
2024-12-03 14:49:33.831000+00:00,1.109889,-2.054943
2024-12-03 14:49:33.835000+00:00,3.241755,4.747248
2024-12-03 14:49:33.839000+00:00,1.593405,5.197797
2024-12-03 14:49:33.843000+00:00,-1.252746,-2.362635
2024-12-03 14:49:33.847000+00:00,-1.879119,-5.340654
2024-12-03 14:49:33.851000+00:00,0.648351,-1.923075
2024-12-03 14:49:33.855000+00:00,3.164832,4.802193
2024-12-03 14:49:33.859000+00:00,1.967031,5.538456
2024-12-03 14:49:33.863000+00:00,-1.373625,-0.417582
2024-12-03 14:49:33.867000+00:00,-2.340657,-5.230764
2024-12-03 14:49:33.871000+00:00,0.208791,-2.879118
2024-12-03 14:49:33.874000+00:00,2.813184,4.527468
2024-12-03 14:49:33.878000+00:00,1.945053,5.483511
2024-12-03 14:49:33.882000+00:00,-0.912087,-0.230769
2024-12-03 14:49:33.886000+00:00,-2.505492,-5.131863
2024-12-03 14:49:33.890000+00:00,-0.010989,-4.054941
2024-12-03 14:49:33.894000+00:00,3.340656,3.95604
2024-12-03 14:49:33.898000+00:00,4.593402,5.472522
2024-12-03 14:49:33.902000+00:00,2.703294,2.593404
2024-12-03 14:49:33.906000+00:00,1.791207,-4.461534
2024-12-03 14:49:33.910000+00:00,4.296699,-2.74725
2024-12-03 14:49:33.914000+00:00,5.516478,4.50549
2024-12-03 14:49:33.917000+00:00,5.439555,5.527467
2024-12-03 14:49:33.921000+00:00,1.989009,4.461534
2024-12-03 14:49:33.925000+00:00,-1.780218,-2.890107
2024-12-03 14:49:33.929000+00:00,-1.582416,-1.857141
2024-12-03 14:49:33.933000+00:00,0.153846,4.780215
2024-12-03 14:49:33.937000+00:00,-0.582417,5.538456
2024-12-03 14:49:33.941000+00:00,-4.516479,5.593401
2024-12-03 14:49:33.945000+00:00,-5.538456,1.131867
2024-12-03 14:49:33.949000+00:00,-5.571423,1.406592
2024-12-03 14:49:33.953000+00:00,-3.439557,5.230764
2024-12-03 14:49:33.956000+00:00,-2.461536,5.593401
2024-12-03 14:49:33.960000+00:00,-4.714281,5.615379
2024-12-03 14:49:33.964000+00:00,-5.549445,2.08791
2024-12-03 14:49:33.968000+00:00,-5.505489,-0.648351
2024-12-03 14:49:33.972000+00:00,-1.252746,4.50549
2024-12-03 14:49:33.976000+00:00,3.054942,5.527467
2024-12-03 14:49:33.980000+00:00,1.890108,5.076918
2024-12-03 14:49:33.984000+00:00,-2.439558,-3.241755
2024-12-03 14:49:33.988000+00:00,-2.626371,-5.373621
2024-12-03 14:49:33.992000+00:00,2.846151,-1.813185
2024-12-03 14:49:33.996000+00:00,5.373621,4.626369
2024-12-03 14:49:33.999000+00:00,5.263731,2.065932
2024-12-03 14:49:34.003000+00:00,0.857142,-4.714281
2024-12-03 14:49:34.007000+00:00,-1.351647,-5.538456
2024-12-03 14:49:34.011000+00:00,2.549448,-5.296698
2024-12-03 14:49:34.015000+00:00,5.362632,-2.758239
2024-12-03 14:49:34.019000+00:00,5.560434,-4.3956
2024-12-03 14:49:34.023000+00:00,0.307692,-5.527467
2024-12-03 14:49:34.027000+00:00,-3.604392,-5.615379
2024-12-03 14:49:34.031000+00:00,0.307692,-4.934061
2024-12-03 14:49:34.035000+00:00,5.098896,1.857141
2024-12-03 14:49:34.039000+00:00,5.483511,3.978018
2024-12-03 14:49:34.042000+00:00,0.670329,-2.74725
2024-12-03 14:49:34.046000+00:00,-4.824171,-5.362632
2024-12-03 14:49:34.050000+00:00,-1.725273,-3.758238
2024-12-03 14:49:34.054000+00:00,4.648347,3.901095
2024-12-03 14:49:34.058000+00:00,5.153841,5.395599
2024-12-03 14:49:34.062000+00:00,-2.483514,-1.219779
2024-12-03 14:49:34.066000+00:00,-5.285709,-5.153841
2024-12-03 14:49:34.070000+00:00,-4.83516,-4.912083
2024-12-03 14:49:34.074000+00:00,2.219778,1.989009
2024-12-03 14:49:34.078000+00:00,4.989006,5.032962
2024-12-03 14:49:34.081000+00:00,-1.824174,-1.857141
2024-12-03 14:49:34.085000+00:00,-5.296698,-5.27472
2024-12-03 14:49:34.089000+00:00,-4.967028,-5.219775
2024-12-03 14:49:34.093000+00:00,2.824173,2.142855
2024-12-03 14:49:34.097000+00:00,5.373621,5.318676
2024-12-03 14:49:34.101000+00:00,1.472526,1.637361
2024-12-03 14:49:34.105000+00:00,-4.703292,-4.692303
2024-12-03 14:49:34.109000+00:00,-4.626369,-4.703292
2024-12-03 14:49:34.113000+00:00,3.164832,3.087909
2024-12-03 14:49:34.117000+00:00,5.406588,5.406588
2024-12-03 14:49:34.121000+00:00,3.373623,3.945051
2024-12-03 14:49:34.124000+00:00,-4.329666,-3.945051
2024-12-03 14:49:34.128000+00:00,-5.142852,-4.780215
2024-12-03 14:49:34.132000+00:00,2.30769,3.109887
2024-12-03 14:49:34.136000+00:00,5.340654,5.395599
2024-12-03 14:49:34.140000+00:00,2.098899,3.241755
2024-12-03 14:49:34.144000+00:00,-4.72527,-4.362633
2024-12-03 14:49:34.148000+00:00,-5.549445,-5.4945
2024-12-03 14:49:34.152000+00:00,-0.527472,0.318681
2024-12-03 14:49:34.156000+00:00,5.098896,5.16483
2024-12-03 14:49:34.160000+00:00,3.780216,4.582413
2024-12-03 14:49:34.164000+00:00,-4.384611,-4.054941
2024-12-03 14:49:34.167000+00:00,-5.516478,-5.483511
2024-12-03 14:49:34.171000+00:00,-1.967031,-1.659339
2024-12-03 14:49:34.175000+00:00,4.83516,4.923072
2024-12-03 14:49:34.179000+00:00,4.010985,4.50549
2024-12-03 14:49:34.183000+00:00,-4.087908,-3.780216
2024-12-03 14:49:34.187000+00:00,-5.483511,-5.461533
2024-12-03 14:49:34.191000+00:00,-4.054941,-3.549447
2024-12-03 14:49:34.195000+00:00,3.439557,4.527468
2024-12-03 14:49:34.199000+00:00,3.054942,5.087907
2024-12-03 14:49:34.203000+00:00,-4.450545,-4.010985
2024-12-03 14:49:34.206000+00:00,-5.516478,-5.461533
2024-12-03 14:49:34.210000+00:00,-3.780216,-4.94505
2024-12-03 14:49:34.214000+00:00,4.142853,4.230765
2024-12-03 14:49:34.218000+00:00,2.318679,5.16483
2024-12-03 14:49:34.222000+00:00,-4.50549,-3.879117
2024-12-03 14:49:34.226000+00:00,-5.527467,-5.472522
2024-12-03 14:49:34.230000+00:00,-3.40659,-5.60439
2024-12-03 14:49:34.234000+00:00,4.043952,3.318678
2024-12-03 14:49:34.238000+00:00,3.197799,5.417577
2024-12-03 14:49:34.242000+00:00,-4.230765,-2.076921
2024-12-03 14:49:34.246000+00:00,-5.4945,-5.307687
2024-12-03 14:49:34.249000+00:00,-3.560436,-5.516478
2024-12-03 14:49:34.253000+00:00,3.021975,3.824172
2024-12-03 14:49:34.257000+00:00,1.912086,5.483511
2024-12-03 14:49:34.261000+00:00,-4.50549,-1.736262
2024-12-03 14:49:34.265000+00:00,-5.516478,-5.252742
2024-12-03 14:49:34.269000+00:00,-3.879117,-5.593401
2024-12-03 14:49:34.273000+00:00,1.824174,1.626372
2024-12-03 14:49:34.277000+00:00,1.0989,5.252742
2024-12-03 14:49:34.281000+00:00,-4.692303,-0.681318
2024-12-03 14:49:34.285000+00:00,-5.538456,-5.186808
2024-12-03 14:49:34.289000+00:00,-2.428569,-5.582412
2024-12-03 14:49:34.292000+00:00,4.648347,2.274723
2024-12-03 14:49:34.296000+00:00,5.219775,5.362632
2024-12-03 14:49:34.300000+00:00,-0.054945,3.791205
2024-12-03 14:49:34.304000+00:00,-4.978017,-4.758237
2024-12-03 14:49:34.308000+00:00,-0.802197,-5.549445
2024-12-03 14:49:34.312000+00:00,4.923072,2.296701
2024-12-03 14:49:34.316000+00:00,5.560434,5.329665
2024-12-03 14:49:34.320000+00:00,2.351646,5.307687
2024-12-03 14:49:34.324000+00:00,-2.692305,-4.252743
2024-12-03 14:49:34.328000+00:00,2.296701,-5.4945
2024-12-03 14:49:34.331000+00:00,5.329665,1.505493
2024-12-03 14:49:34.335000+00:00,5.593401,5.318676
2024-12-03 14:49:34.339000+00:00,3.18681,5.571423
2024-12-03 14:49:34.343000+00:00,-4.06593,-4.021974
2024-12-03 14:49:34.347000+00:00,-3.241755,-5.483511
2024-12-03 14:49:34.351000+00:00,4.164831,-0.648351
2024-12-03 14:49:34.355000+00:00,5.4945,5.087907
2024-12-03 14:49:34.359000+00:00,1.043955,5.571423
2024-12-03 14:49:34.363000+00:00,-4.934061,-3.428568
2024-12-03 14:49:34.367000+00:00,-4.230765,-5.417577
2024-12-03 14:49:34.371000+00:00,3.681315,-1.835163
2024-12-03 14:49:34.374000+00:00,5.483511,5.087907
2024-12-03 14:49:34.378000+00:00,2.461536,5.560434
2024-12-03 14:49:34.382000+00:00,-4.098897,-2.582415
2024-12-03 14:49:34.386000+00:00,-4.582413,-5.351643
2024-12-03 14:49:34.390000+00:00,2.999997,-4.263732
2024-12-03 14:49:34.394000+00:00,5.406588,4.703292
2024-12-03 14:49:34.398000+00:00,3.450546,5.538456
2024-12-03 14:49:34.402000+00:00,-4.098897,-1.769229
2024-12-03 14:49:34.406000+00:00,-5.197797,-5.27472
2024-12-03 14:49:34.410000+00:00,1.659339,-5.076918
2024-12-03 14:49:34.414000+00:00,5.329665,4.626369
2024-12-03 14:49:34.417000+00:00,4.087908,5.516478
2024-12-03 14:49:34.421000+00:00,-3.813183,-0.230769
2024-12-03 14:49:34.425000+00:00,-5.395599,-5.153841
2024-12-03 14:49:34.429000+00:00,0.351648,-5.538456
2024-12-03 14:49:34.433000+00:00,5.16483,4.120875
2024-12-03 14:49:34.437000+00:00,4.417578,5.472522
2024-12-03 14:49:34.441000+00:00,-3.087909,1.230768
2024-12-03 14:49:34.445000+00:00,-5.27472,-5.032962
2024-12-03 14:49:34.449000+00:00,1.241757,-5.571423
2024-12-03 14:49:34.453000+00:00,5.318676,3.791205
2024-12-03 14:49:34.456000+00:00,5.549445,5.417577
2024-12-03 14:49:34.460000+00:00,-0.175824,2.692305
2024-12-03 14:49:34.464000+00:00,-5.131863,-4.912083
2024-12-03 14:49:34.468000+00:00,-0.263736,-5.549445
2024-12-03 14:49:34.472000+00:00,5.065929,2.604393
2024-12-03 14:49:34.476000+00:00,5.406588,5.351643
2024-12-03 14:49:34.480000+00:00,-2.054943,4.758237
2024-12-03 14:49:34.484000+00:00,-5.307687,-4.604391
2024-12-03 14:49:34.488000+00:00,-4.021974,-5.527467
2024-12-03 14:49:34.492000+00:00,4.153842,2.384613
2024-12-03 14:49:34.496000+00:00,4.934061,5.27472
2024-12-03 14:49:34.499000+00:00,-2.978019,5.461533
2024-12-03 14:49:34.503000+00:00,-5.395599,-4.17582
2024-12-03 14:49:34.507000+00:00,-5.186808,-5.483511
2024-12-03 14:49:34.511000+00:00,2.52747,0.802197
2024-12-03 14:49:34.515000+00:00,5.27472,5.175819
2024-12-03 14:49:34.519000+00:00,-0.538461,5.582412
2024-12-03 14:49:34.523000+00:00,-5.197797,-3.593403
2024-12-03 14:49:34.527000+00:00,-4.384611,-5.439555
2024-12-03 14:49:34.531000+00:00,4.010985,0.516483
2024-12-03 14:49:34.535000+00:00,5.450544,5.087907
2024-12-03 14:49:34.539000+00:00,2.736261,5.571423
2024-12-03 14:49:34.542000+00:00,-4.516479,-2.956041
2024-12-03 14:49:34.546000+00:00,-4.131864,-5.38461
2024-12-03 14:49:34.550000+00:00,3.791205,-2.934063
2024-12-03 14:49:34.554000+00:00,5.461533,4.879116
2024-12-03 14:49:34.558000+00:00,3.373623,5.549445
2024-12-03 14:49:34.562000+00:00,-4.318677,-2.010987
2024-12-03 14:49:34.566000+00:00,-5.219775,-5.307687
2024-12-03 14:49:34.570000+00:00,2.41758,-3.84615
2024-12-03 14:49:34.574000+00:00,5.285709,4.560435
2024-12-03 14:49:34.578000+00:00,3.747249,5.516478
2024-12-03 14:49:34.581000+00:00,-4.010985,-1.186812
2024-12-03 14:49:34.585000+00:00,-5.395599,-5.230764
2024-12-03 14:49:34.589000+00:00,1.087911,-5.417577
2024-12-03 14:49:34.593000+00:00,5.219775,4.17582
2024-12-03 14:49:34.597000+00:00,4.890105,5.4945
2024-12-03 14:49:34.601000+00:00,-3.054942,0.703296
2024-12-03 14:49:34.605000+00:00,-5.38461,-5.043951
2024-12-03 14:49:34.609000+00:00,0.164835,-5.527467
2024-12-03 14:49:34.613000+00:00,5.043951,3.648348
2024-12-03 14:49:34.617000+00:00,4.626369,5.450544
2024-12-03 14:49:34.621000+00:00,-3.2967,2.142855
2024-12-03 14:49:34.624000+00:00,-5.428566,-4.912083
2024-12-03 14:49:34.628000+00:00,-2.791206,-5.560434
2024-12-03 14:49:34.632000+00:00,4.472523,2.813184
2024-12-03 14:49:34.636000+00:00,4.846149,5.351643
2024-12-03 14:49:34.640000+00:00,-2.52747,3.84615
2024-12-03 14:49:34.644000+00:00,-5.362632,-4.758237
2024-12-03 14:49:34.648000+00:00,-3.274722,-5.549445
2024-12-03 14:49:34.652000+00:00,3.065931,1.131867
2024-12-03 14:49:34.656000+00:00,5.076918,5.219775
2024-12-03 14:49:34.660000+00:00,-2.120877,4.934061
2024-12-03 14:49:34.664000+00:00,-5.318676,-4.472523
2024-12-03 14:49:34.667000+00:00,-4.813182,-5.516478
2024-12-03 14:49:34.671000+00:00,2.021976,0.241758
2024-12-03 14:49:34.675000+00:00,4.802193,5.142852
2024-12-03 14:49:34.679000+00:00,-1.274724,5.428566
2024-12-03 14:49:34.683000+00:00,-5.263731,-4.142853
2024-12-03 14:49:34.687000+00:00,-4.010985,-5.505489
2024-12-03 14:49:34.691000+00:00,3.087909,-2.263734
2024-12-03 14:49:34.695000+00:00,5.406588,4.94505
2024-12-03 14:49:34.699000+00:00,1.956042,5.549445
2024-12-03 14:49:34.703000+00:00,-4.494501,-3.714282
2024-12-03 14:49:34.706000+00:00,-4.351644,-5.450544
2024-12-03 14:49:34.710000+00:00,2.428569,-4.692303
2024-12-03 14:49:34.714000+00:00,5.340654,4.461534
2024-12-03 14:49:34.718000+00:00,2.450547,5.516478
2024-12-03 14:49:34.722000+00:00,-4.318677,-3.274722
2024-12-03 14:49:34.726000+00:00,-5.120874,-5.439555
2024-12-03 14:49:34.730000+00:00,-0.692307,-5.373621
2024-12-03 14:49:34.734000+00:00,3.593403,3.868128
2024-12-03 14:49:34.738000+00:00,0.472527,5.461533
2024-12-03 14:49:34.742000+00:00,-4.923072,-2.780217
2024-12-03 14:49:34.746000+00:00,-5.560434,-5.351643
2024-12-03 14:49:34.749000+00:00,-3.252744,-5.593401
2024-12-03 14:49:34.753000+00:00,1.032966,3.175821
2024-12-03 14:49:34.757000+00:00,-0.857142,5.395599
2024-12-03 14:49:34.761000+00:00,-5.120874,-2.285712
2024-12-03 14:49:34.765000+00:00,-5.582412,-5.373621
2024-12-03 14:49:34.769000+00:00,-2.879118,1.747251
2024-12-03 14:49:34.773000+00:00,-1.230768,5.285709
2024-12-03 14:49:34.777000+00:00,-5.263731,-0.296703
2024-12-03 14:49:34.781000+00:00,-5.593401,-5.131863
2024-12-03 14:49:34.785000+00:00,2.241756,-5.571423
2024-12-03 14:49:34.789000+00:00,4.846149,-5.615379
2024-12-03 14:49:34.792000+00:00,-3.835161,-5.626368
2024-12-03 14:49:34.796000+00:00,3.483513,-0.681318
2024-12-03 14:49:34.800000+00:00,4.406589,-2.076921
2024-12-03 14:49:34.804000+00:00,0.340659,-5.351643
2024-12-03 14:49:34.808000+00:00,4.076919,-4.912083
2024-12-03 14:49:34.812000+00:00,5.4945,4.296699
2024-12-03 14:49:34.816000+00:00,5.60439,5.4945
2024-12-03 14:49:34.820000+00:00,5.417577,5.615379
2024-12-03 14:49:34.824000+00:00,-2.395602,5.615379
2024-12-03 14:49:34.828000+00:00,-1.769229,5.615379
2024-12-03 14:49:34.831000+00:00,4.758237,5.615379
2024-12-03 14:49:34.835000+00:00,0.054945,5.615379
2024-12-03 14:49:34.839000+00:00,-5.120874,5.615379
2024-12-03 14:49:34.843000+00:00,-5.582412,5.615379
2024-12-03 14:49:34.847000+00:00,0.76923,-2.439558
2024-12-03 14:49:34.851000+00:00,5.219775,-5.318676
2024-12-03 14:49:34.855000+00:00,5.593401,-5.593401
2024-12-03 14:49:34.859000+00:00,5.615379,-5.615379
2024-12-03 14:49:34.863000+00:00,5.615379,-5.615379
2024-12-03 14:49:34.867000+00:00,5.615379,-0.087912
2024-12-03 14:49:34.871000+00:00,-2.483514,5.120874
2024-12-03 14:49:34.874000+00:00,-5.351643,-1.065933
2024-12-03 14:49:34.878000+00:00,-5.593401,4.538457
2024-12-03 14:49:34.882000+00:00,-5.615379,5.538456
2024-12-03 14:49:34.886000+00:00,-5.615379,5.615379
2024-12-03 14:49:34.890000+00:00,-5.626368,5.615379
2024-12-03 14:49:34.894000+00:00,-5.626368,5.615379
2024-12-03 14:49:34.898000+00:00,-2.065932,5.615379
2024-12-03 14:49:34.902000+00:00,-0.406593,5.615379
2024-12-03 14:49:34.906000+00:00,-5.131863,5.615379
2024-12-03 14:49:34.910000+00:00,-5.582412,5.615379
2024-12-03 14:49:34.914000+00:00,-5.615379,5.615379
2024-12-03 14:49:34.917000+00:00,-5.626368,5.516478
2024-12-03 14:49:34.921000+00:00,-5.615379,0.615384
2024-12-03 14:49:34.925000+00:00,-5.626368,-4.824171
2024-12-03 14:49:34.929000+00:00,-5.626368,-5.549445
2024-12-03 14:49:34.933000+00:00,-5.626368,-5.615379
2024-12-03 14:49:34.937000+00:00,-5.626368,-5.626368
2024-12-03 14:49:34.941000+00:00,-5.626368,-5.626368
2024-12-03 14:49:34.945000+00:00,-1.97802,-5.626368
2024-12-03 14:49:34.949000+00:00,-2.912085,-5.626368
2024-12-03 14:49:34.953000+00:00,4.593402,-4.307688
2024-12-03 14:49:34.956000+00:00,5.527467,4.351644
2024-12-03 14:49:34.960000+00:00,5.615379,5.516478
2024-12-03 14:49:34.964000+00:00,5.615379,5.615379
2024-12-03 14:49:34.968000+00:00,5.615379,5.615379
2024-12-03 14:49:34.972000+00:00,5.615379,5.615379
2024-12-03 14:49:34.976000+00:00,5.615379,5.615379
2024-12-03 14:49:34.980000+00:00,5.615379,5.615379
2024-12-03 14:49:34.984000+00:00,3.967029,5.615379
2024-12-03 14:49:34.988000+00:00,-2.791206,5.615379
2024-12-03 14:49:34.992000+00:00,-5.38461,5.615379
2024-12-03 14:49:34.996000+00:00,-5.593401,2.340657
2024-12-03 14:49:34.999000+00:00,-5.615379,-4.956039
2024-12-03 14:49:35.003000+00:00,-5.626368,-5.549445
2024-12-03 14:49:35.007000+00:00,-4.527468,-5.615379
2024-12-03 14:49:35.011000+00:00,-0.065934,-5.626368
2024-12-03 14:49:35.015000+00:00,2.714283,-5.626368
2024-12-03 14:49:35.019000+00:00,1.923075,-5.626368
2024-12-03 14:49:35.023000+00:00,1.42857,-5.626368
2024-12-03 14:49:35.027000+00:00,3.703293,-5.626368
2024-12-03 14:49:35.031000+00:00,5.428566,-1.780218
2024-12-03 14:49:35.035000+00:00,5.60439,4.934061
2024-12-03 14:49:35.039000+00:00,3.868128,5.560434
2024-12-03 14:49:35.042000+00:00,0.032967,3.835161
2024-12-03 14:49:35.046000+00:00,-1.461537,-2.098899
2024-12-03 14:49:35.050000+00:00,1.571427,2.230767
2024-12-03 14:49:35.054000+00:00,4.967028,5.329665
2024-12-03 14:49:35.058000+00:00,4.472523,5.60439
2024-12-03 14:49:35.062000+00:00,1.604394,2.351646
2024-12-03 14:49:35.066000+00:00,0.153846,-4.703292
2024-12-03 14:49:35.070000+00:00,1.186812,-2.780217
2024-12-03 14:49:35.074000+00:00,1.967031,4.670325
2024-12-03 14:49:35.078000+00:00,-0.923076,5.549445
2024-12-03 14:49:35.081000+00:00,-4.494501,3.054942
2024-12-03 14:49:35.085000+00:00,-5.439555,-4.472523
2024-12-03 14:49:35.089000+00:00,-3.450546,-3.538458
2024-12-03 14:49:35.093000+00:00,-0.571428,4.384611
2024-12-03 14:49:35.097000+00:00,-1.571427,5.516478
2024-12-03 14:49:35.101000+00:00,-4.868127,2.626371
2024-12-03 14:49:35.105000+00:00,-5.010984,-4.648347
2024-12-03 14:49:35.109000+00:00,-2.230767,-5.406588
2024-12-03 14:49:35.113000+00:00,1.725273,2.461536
2024-12-03 14:49:35.117000+00:00,3.780216,5.373621
2024-12-03 14:49:35.121000+00:00,2.549448,3.417579
2024-12-03 14:49:35.124000+00:00,1.549449,-4.527468
2024-12-03 14:49:35.128000+00:00,3.351645,-5.516478
2024-12-03 14:49:35.132000+00:00,5.395599,-0.681318
2024-12-03 14:49:35.136000+00:00,5.60439,5.032962
2024-12-03 14:49:35.140000+00:00,4.076919,0.373626
2024-12-03 14:49:35.144000+00:00,0.351648,-5.098896
2024-12-03 14:49:35.148000+00:00,3.153843,-5.571423
2024-12-03 14:49:35.152000+00:00,5.417577,-0.703296
2024-12-03 14:49:35.156000+00:00,5.60439,5.142852
2024-12-03 14:49:35.160000+00:00,5.186808,4.769226
2024-12-03 14:49:35.164000+00:00,2.989008,-3.824172
2024-12-03 14:49:35.167000+00:00,2.428569,-5.450544
2024-12-03 14:49:35.171000+00:00,4.769226,-0.791208
2024-12-03 14:49:35.175000+00:00,5.428566,5.05494
2024-12-03 14:49:35.179000+00:00,2.406591,5.285709
2024-12-03 14:49:35.183000+00:00,-0.736263,-3.087909
2024-12-03 14:49:35.187000+00:00,-0.164835,-5.395599
2024-12-03 14:49:35.191000+00:00,2.934063,-1.824174
2024-12-03 14:49:35.195000+00:00,3.95604,5.021973
2024-12-03 14:49:35.199000+00:00,-0.153846,5.142852
2024-12-03 14:49:35.203000+00:00,-2.472525,-2.63736
2024-12-03 14:49:35.206000+00:00,-2.835162,-5.362632
2024-12-03 14:49:35.210000+00:00,0.824175,-3.120876
2024-12-03 14:49:35.214000+00:00,3.879117,4.571424
2024-12-03 14:49:35.218000+00:00,3.340656,5.527467
2024-12-03 14:49:35.222000+00:00,0.571428,-0.780219
2024-12-03 14:49:35.226000+00:00,-0.516483,-5.175819
2024-12-03 14:49:35.230000+00:00,2.043954,-3.769227
2024-12-03 14:49:35.234000+00:00,4.186809,4.626369
2024-12-03 14:49:35.238000+00:00,2.109888,5.505489
2024-12-03 14:49:35.242000+00:00,-2.032965,-0.252747
2024-12-03 14:49:35.246000+00:00,-3.780216,-5.153841
2024-12-03 14:49:35.249000+00:00,-1.835163,-4.923072
2024-12-03 14:49:35.253000+00:00,0.604395,3.670326
2024-12-03 14:49:35.257000+00:00,-0.186813,5.450544
2024-12-03 14:49:35.261000+00:00,-3.648348,1.340658
2024-12-03 14:49:35.265000+00:00,-5.05494,-4.912083
2024-12-03 14:49:35.269000+00:00,-3.010986,-4.989006
2024-12-03 14:49:35.273000+00:00,0.021978,3.637359
2024-12-03 14:49:35.277000+00:00,-0.164835,5.406588
2024-12-03 14:49:35.281000+00:00,-3.307689,1.725273
2024-12-03 14:49:35.285000+00:00,-5.406588,-4.846149
2024-12-03 14:49:35.289000+00:00,-4.538457,-5.527467
2024-12-03 14:49:35.292000+00:00,-2.120877,1.417581
2024-12-03 14:49:35.296000+00:00,-1.857141,5.252742
2024-12-03 14:49:35.300000+00:00,-4.626369,3.109887
2024-12-03 14:49:35.304000+00:00,-5.538456,-4.516479
2024-12-03 14:49:35.308000+00:00,-5.296698,-5.505489
2024-12-03 14:49:35.312000+00:00,-2.52747,1.31868
2024-12-03 14:49:35.316000+00:00,-1.835163,5.175819
2024-12-03 14:49:35.320000+00:00,-3.329667,-1.20879
2024-12-03 14:49:35.324000+00:00,-0.54945,-5.230764
2024-12-03 14:49:35.328000+00:00,0.186813,-5.582412
2024-12-03 14:49:35.331000+00:00,0.395604,0.43956
2024-12-03 14:49:35.335000+00:00,1.043955,5.175819
2024-12-03 14:49:35.339000+00:00,0.252747,4.83516
2024-12-03 14:49:35.343000+00:00,-4.747248,-3.703293
2024-12-03 14:49:35.347000+00:00,0.76923,-5.450544
2024-12-03 14:49:35.351000+00:00,3.571425,-5.549445
2024-12-03 14:49:35.355000+00:00,4.17582,0.0
2024-12-03 14:49:35.359000+00:00,4.912083,5.065929
2024-12-03 14:49:35.363000+00:00,2.890107,2.769228
2024-12-03 14:49:35.367000+00:00,2.230767,2.208789
2024-12-03 14:49:35.371000+00:00,4.846149,5.285709
2024-12-03 14:49:35.374000+00:00,5.560434,5.593401
2024-12-03 14:49:35.378000+00:00,3.725271,5.615379
2024-12-03 14:49:35.382000+00:00,0.197802,5.615379
2024-12-03 14:49:35.386000+00:00,-0.999999,3.527469
2024-12-03 14:49:35.390000+00:00,0.505494,5.175819
2024-12-03 14:49:35.394000+00:00,1.681317,5.582412
2024-12-03 14:49:35.398000+00:00,-0.087912,5.615379
2024-12-03 14:49:35.402000+00:00,-2.505492,3.230766
2024-12-03 14:49:35.406000+00:00,-4.890105,-4.318677
2024-12-03 14:49:35.410000+00:00,-3.208788,-2.813184
2024-12-03 14:49:35.414000+00:00,-0.252747,4.340655
2024-12-03 14:49:35.417000+00:00,-0.494505,5.505489
2024-12-03 14:49:35.421000+00:00,-3.208788,1.516482
2024-12-03 14:49:35.425000+00:00,-4.054941,-4.83516
2024-12-03 14:49:35.429000+00:00,-0.98901,-3.758238
2024-12-03 14:49:35.433000+00:00,2.1978,3.890106
2024-12-03 14:49:35.437000+00:00,1.736262,5.472522
2024-12-03 14:49:35.441000+00:00,-0.813186,2.186811
2024-12-03 14:49:35.445000+00:00,-0.604395,-4.813182
2024-12-03 14:49:35.449000+00:00,2.142855,-5.450544
2024-12-03 14:49:35.453000+00:00,4.384611,1.065933
2024-12-03 14:49:35.456000+00:00,4.758237,5.219775
2024-12-03 14:49:35.460000+00:00,2.043954,2.549448
2024-12-03 14:49:35.464000+00:00,-0.934065,-4.560435
2024-12-03 14:49:35.468000+00:00,-0.076923,-5.527467
2024-12-03 14:49:35.472000+00:00,1.120878,-1.912086
2024-12-03 14:49:35.476000+00:00,2.989008,4.714281
2024-12-03 14:49:35.480000+00:00,1.230768,1.296702
2024-12-03 14:49:35.484000+00:00,-0.901098,-4.934061
2024-12-03 14:49:35.488000+00:00,0.0,-5.549445
2024-12-03 14:49:35.492000+00:00,2.362635,-3.274722
2024-12-03 14:49:35.496000+00:00,2.923074,4.043952
2024-12-03 14:49:35.499000+00:00,0.615384,2.021976
2024-12-03 14:49:35.503000+00:00,-1.97802,-4.802193
2024-12-03 14:49:35.507000+00:00,-1.274724,-5.549445
2024-12-03 14:49:35.511000+00:00,1.516482,-4.252743
2024-12-03 14:49:35.515000+00:00,3.252744,3.417579
2024-12-03 14:49:35.519000+00:00,1.714284,3.285711
2024-12-03 14:49:35.523000+00:00,-0.98901,-4.329666
2024-12-03 14:49:35.527000+00:00,-1.142856,-5.4945
2024-12-03 14:49:35.531000+00:00,1.527471,-4.274721
2024-12-03 14:49:35.535000+00:00,2.615382,3.318678
2024-12-03 14:49:35.539000+00:00,0.87912,3.945051
2024-12-03 14:49:35.542000+00:00,-1.813185,-4.06593
2024-12-03 14:49:35.546000+00:00,-1.439559,-5.4945
2024-12-03 14:49:35.550000+00:00,1.593405,-4.83516
2024-12-03 14:49:35.554000+00:00,3.703293,2.956041
2024-12-03 14:49:35.558000+00:00,2.30769,4.736259
2024-12-03 14:49:35.562000+00:00,-0.703296,-3.362634
2024-12-03 14:49:35.566000+00:00,-1.065933,-5.406588
2024-12-03 14:49:35.570000+00:00,0.956043,-5.373621
2024-12-03 14:49:35.574000+00:00,3.252744,1.934064
2024-12-03 14:49:35.578000+00:00,2.032965,5.087907
2024-12-03 14:49:35.581000+00:00,-0.956043,-1.736262
2024-12-03 14:49:35.585000+00:00,-2.186811,-5.340654
2024-12-03 14:49:35.589000+00:00,-0.472527,-5.318676
2024-12-03 14:49:35.593000+00:00,1.64835,2.538459
2024-12-03 14:49:35.597000+00:00,0.934065,5.351643
2024-12-03 14:49:35.601000+00:00,-1.989009,1.076922
2024-12-03 14:49:35.605000+00:00,-3.417579,-4.967028
2024-12-03 14:49:35.609000+00:00,-1.461537,-5.417577
2024-12-03 14:49:35.613000+00:00,1.384614,1.703295
2024-12-03 14:49:35.617000+00:00,1.395603,5.27472
2024-12-03 14:49:35.621000+00:00,-1.527471,1.736262
2024-12-03 14:49:35.624000+00:00,-3.483513,-4.989006
2024-12-03 14:49:35.628000+00:00,-1.989009,-5.549445
2024-12-03 14:49:35.632000+00:00,0.967032,0.340659
2024-12-03 14:49:35.636000+00:00,1.285713,5.142852
2024-12-03 14:49:35.640000+00:00,-1.747251,2.890107
2024-12-03 14:49:35.644000+00:00,-3.934062,-4.593402
2024-12-03 14:49:35.648000+00:00,-2.52747,-5.527467
2024-12-03 14:49:35.652000+00:00,0.780219,-0.923076
2024-12-03 14:49:35.656000+00:00,1.769229,4.989006
2024-12-03 14:49:35.660000+00:00,-0.714285,4.131864
2024-12-03 14:49:35.664000+00:00,-3.285711,-4.230765
2024-12-03 14:49:35.667000+00:00,-5.626368,-5.626368
2024-12-03 14:49:35.671000+00:00,-5.626368,-5.626368
2024-12-03 14:49:35.675000+00:00,-5.626368,-5.626368
2024-12-03 14:49:35.679000+00:00,-5.626368,-5.626368
2024-12-03 14:49:35.683000+00:00,-5.626368,-5.626368
2024-12-03 14:49:35.687000+00:00,-5.626368,-5.626368
2024-12-03 14:49:35.691000+00:00,-5.626368,-5.626368
2024-12-03 14:49:35.695000+00:00,-5.626368,-5.626368
2024-12-03 14:49:35.699000+00:00,-5.626368,-5.626368
2024-12-03 14:49:35.703000+00:00,-5.626368,-5.626368
2024-12-03 14:49:35.706000+00:00,-5.626368,-5.626368
2024-12-03 14:49:35.710000+00:00,-5.626368,-5.626368
2024-12-03 14:49:35.714000+00:00,-5.626368,-5.626368
2024-12-03 14:49:35.718000+00:00,-5.626368,-5.626368
2024-12-03 14:49:35.722000+00:00,-5.626368,-5.626368
2024-12-03 14:49:35.726000+00:00,-5.626368,-5.626368
2024-12-03 14:49:35.730000+00:00,-5.626368,-5.626368
2024-12-03 14:49:35.734000+00:00,-5.626368,-5.626368
2024-12-03 14:49:35.738000+00:00,-5.626368,-5.626368
2024-12-03 14:49:35.742000+00:00,-5.626368,-5.626368
2024-12-03 14:49:35.746000+00:00,-5.626368,-5.626368
2024-12-03 14:49:35.749000+00:00,-5.626368,-5.626368
2024-12-03 14:49:35.753000+00:00,-5.626368,-5.626368
2024-12-03 14:49:35.757000+00:00,-5.626368,-5.626368
2024-12-03 14:49:35.761000+00:00,-5.626368,-5.626368
2024-12-03 14:49:35.765000+00:00,-5.626368,-5.626368
2024-12-03 14:49:35.769000+00:00,-5.626368,-5.626368
2024-12-03 14:49:35.773000+00:00,-5.626368,-5.626368
2024-12-03 14:49:35.777000+00:00,-5.626368,-5.626368
2024-12-03 14:49:35.781000+00:00,-5.626368,-5.626368
2024-12-03 14:49:35.785000+00:00,-5.626368,-5.626368
2024-12-03 14:49:35.789000+00:00,-5.626368,-5.626368
2024-12-03 14:49:35.792000+00:00,-5.626368,-5.626368
2024-12-03 14:49:35.796000+00:00,-5.626368,-5.626368
2024-12-03 14:49:35.800000+00:00,-5.626368,-5.626368
2024-12-03 14:49:35.804000+00:00,-5.626368,-5.626368
2024-12-03 14:49:35.808000+00:00,-5.626368,-5.626368
2024-12-03 14:49:35.812000+00:00,-5.626368,-5.626368
2024-12-03 14:49:35.816000+00:00,-5.626368,-5.626368
2024-12-03 14:49:35.820000+00:00,-5.626368,-5.626368
2024-12-03 14:49:35.824000+00:00,-5.626368,-5.626368
2024-12-03 14:49:35.828000+00:00,-5.626368,-5.626368
2024-12-03 14:49:35.831000+00:00,-5.626368,-5.626368
2024-12-03 14:49:35.835000+00:00,-5.626368,-5.626368
2024-12-03 14:49:35.839000+00:00,-5.626368,-5.626368
2024-12-03 14:49:35.843000+00:00,-5.626368,-5.626368
2024-12-03 14:49:35.847000+00:00,-5.626368,-5.626368
2024-12-03 14:49:35.851000+00:00,-5.626368,-5.626368
2024-12-03 14:49:35.855000+00:00,-5.626368,-5.626368
2024-12-03 14:49:35.859000+00:00,-5.626368,-5.626368
2024-12-03 14:49:35.863000+00:00,-5.626368,-5.626368
2024-12-03 14:49:35.867000+00:00,-5.626368,-5.626368
2024-12-03 14:49:35.871000+00:00,-5.626368,-5.626368
2024-12-03 14:49:35.874000+00:00,-5.626368,-5.626368
2024-12-03 14:49:35.878000+00:00,-5.626368,-5.626368
2024-12-03 14:49:35.882000+00:00,-5.626368,-5.626368
2024-12-03 14:49:35.886000+00:00,-5.626368,-5.626368
2024-12-03 14:49:35.890000+00:00,-5.626368,-5.626368
2024-12-03 14:49:35.894000+00:00,-5.626368,-5.626368
2024-12-03 14:49:35.898000+00:00,-5.626368,-5.626368
2024-12-03 14:49:35.902000+00:00,-5.626368,-5.626368
2024-12-03 14:49:35.906000+00:00,-5.626368,-5.626368
2024-12-03 14:49:35.910000+00:00,-5.626368,-5.626368
2024-12-03 14:49:35.914000+00:00,-5.626368,-5.626368
2024-12-03 14:49:35.917000+00:00,-5.626368,-5.626368
2024-12-03 14:49:35.921000+00:00,-5.626368,-5.626368
2024-12-03 14:49:35.925000+00:00,-5.626368,-5.626368
2024-12-03 14:49:35.929000+00:00,-5.626368,-5.626368
2024-12-03 14:49:35.933000+00:00,-5.626368,-5.626368
2024-12-03 14:49:35.937000+00:00,-5.626368,-5.626368
2024-12-03 14:49:35.941000+00:00,-5.626368,-5.626368
2024-12-03 14:49:35.945000+00:00,-5.626368,-5.626368
2024-12-03 14:49:35.949000+00:00,-5.626368,-5.626368
2024-12-03 14:49:35.953000+00:00,-5.626368,-5.626368
2024-12-03 14:49:35.956000+00:00,-5.626368,-5.626368
2024-12-03 14:49:35.960000+00:00,-5.626368,-5.626368
2024-12-03 14:49:35.964000+00:00,-5.626368,-5.626368
2024-12-03 14:49:35.968000+00:00,-5.626368,-5.626368
2024-12-03 14:49:35.972000+00:00,-5.626368,-5.626368
2024-12-03 14:49:35.976000+00:00,-5.626368,-5.626368
2024-12-03 14:49:35.980000+00:00,-5.626368,-5.626368
2024-12-03 14:49:35.984000+00:00,-5.626368,-5.626368
2024-12-03 14:49:35.988000+00:00,-5.626368,-5.626368
2024-12-03 14:49:35.992000+00:00,-5.626368,-5.626368
2024-12-03 14:49:35.996000+00:00,-5.626368,-5.626368
2024-12-03 14:49:35.999000+00:00,-0.692307,4.131864
2024-12-03 14:49:36.003000+00:00,-3.142854,-4.142853
2024-12-03 14:49:36.007000+00:00,-1.989009,-5.483511
2024-12-03 14:49:36.011000+00:00,1.263735,-1.131867
2024-12-03 14:49:36.015000+00:00,2.714283,5.05494
2024-12-03 14:49:36.019000+00:00,0.615384,5.05494
2024-12-03 14:49:36.023000+00:00,-2.153844,-3.40659
2024-12-03 14:49:36.027000+00:00,-1.670328,-5.417577
2024-12-03 14:49:36.031000+00:00,1.582416,-2.241756
2024-12-03 14:49:36.035000+00:00,3.417579,4.780215
2024-12-03 14:49:36.039000+00:00,1.219779,5.362632
2024-12-03 14:49:36.042000+00:00,-1.999998,-2.560437
2024-12-03 14:49:36.046000+00:00,-2.175822,-5.351643
2024-12-03 14:49:36.050000+00:00,0.648351,-3.483513
2024-12-03 14:49:36.054000+00:00,2.626371,4.560435
2024-12-03 14:49:36.058000+00:00,1.021977,5.439555
2024-12-03 14:49:36.062000+00:00,-2.131866,-2.120877
2024-12-03 14:49:36.066000+00:00,-2.692305,-5.285709
2024-12-03 14:49:36.070000+00:00,0.153846,-4.538457
2024-12-03 14:49:36.074000+00:00,2.736261,3.868128
2024-12-03 14:49:36.078000+00:00,1.42857,5.461533
2024-12-03 14:49:36.081000+00:00,-1.813185,-0.582417
2024-12-03 14:49:36.085000+00:00,-2.846151,-5.175819
2024-12-03 14:49:36.089000+00:00,-0.120879,-4.868127
2024-12-03 14:49:36.093000+00:00,2.802195,3.879117
2024-12-03 14:49:36.097000+00:00,1.967031,5.439555
2024-12-03 14:49:36.101000+00:00,-1.384614,1.329669
2024-12-03 14:49:36.105000+00:00,-2.824173,-4.901094
2024-12-03 14:49:36.109000+00:00,-0.835164,-4.670325
2024-12-03 14:49:36.113000+00:00,1.131867,3.95604
2024-12-03 14:49:36.117000+00:00,-0.428571,5.461533
2024-12-03 14:49:36.121000+00:00,-4.307688,4.879116
2024-12-03 14:49:36.124000+00:00,-5.505489,-2.791206
2024-12-03 14:49:36.128000+00:00,-5.087907,-3.120876
2024-12-03 14:49:36.132000+00:00,-2.406591,4.61538
2024-12-03 14:49:36.136000+00:00,-3.263733,5.505489
2024-12-03 14:49:36.140000+00:00,-4.83516,5.571423
2024-12-03 14:49:36.144000+00:00,-5.560434,-0.571428
2024-12-03 14:49:36.148000+00:00,-5.395599,-2.494503
2024-12-03 14:49:36.152000+00:00,-2.999997,4.571424
2024-12-03 14:49:36.156000+00:00,-2.461536,5.516478
2024-12-03 14:49:36.160000+00:00,-4.83516,5.527467
2024-12-03 14:49:36.164000+00:00,-5.560434,-1.483515
2024-12-03 14:49:36.167000+00:00,-4.857138,-5.021973
2024-12-03 14:49:36.171000+00:00,-1.296702,2.824173
2024-12-03 14:49:36.175000+00:00,0.10989,5.329665
2024-12-03 14:49:36.179000+00:00,-1.725273,5.285709
2024-12-03 14:49:36.183000+00:00,-3.934062,-3.098898
2024-12-03 14:49:36.187000+00:00,-2.549448,-5.38461
2024-12-03 14:49:36.191000+00:00,1.472526,-1.549449
2024-12-03 14:49:36.195000+00:00,3.659337,4.912083
2024-12-03 14:49:36.199000+00:00,2.263734,4.780215
2024-12-03 14:49:36.203000+00:00,0.120879,-3.84615
2024-12-03 14:49:36.206000+00:00,0.945054,-5.461533
2024-12-03 14:49:36.210000+00:00,4.494501,-4.461534
2024-12-03 14:49:36.214000+00:00,5.505489,3.18681
2024-12-03 14:49:36.218000+00:00,4.890105,3.868128
2024-12-03 14:49:36.222000+00:00,2.219778,-4.131864
2024-12-03 14:49:36.226000+00:00,1.593405,-5.483511
2024-12-03 14:49:36.230000+00:00,4.131864,-5.373621
2024-12-03 14:49:36.234000+00:00,5.505489,1.857141
2024-12-03 14:49:36.238000+00:00,4.351644,4.461534
2024-12-03 14:49:36.242000+00:00,1.043955,-3.747249
2024-12-03 14:49:36.246000+00:00,0.054945,-5.450544
2024-12-03 14:49:36.249000+00:00,2.923074,-5.351643
2024-12-03 14:49:36.253000+00:00,5.208786,1.670328
2024-12-03 14:49:36.257000+00:00,4.373622,5.16483
2024-12-03 14:49:36.261000+00:00,1.043955,-2.252745
2024-12-03 14:49:36.265000+00:00,-0.307692,-5.307687
2024-12-03 14:49:36.269000+00:00,2.164833,-5.571423
2024-12-03 14:49:36.273000+00:00,5.065929,1.175823
2024-12-03 14:49:36.277000+00:00,4.681314,5.208786
2024-12-03 14:49:36.281000+00:00,1.53846,-0.560439
2024-12-03 14:49:36.285000+00:00,-0.417582,-5.175819
2024-12-03 14:49:36.289000+00:00,1.879119,-5.560434
2024-12-03 14:49:36.292000+00:00,4.582413,0.76923
2024-12-03 14:49:36.296000+00:00,4.384611,5.197797
2024-12-03 14:49:36.300000+00:00,0.98901,2.340657
2024-12-03 14:49:36.304000+00:00,-1.747251,-4.780215
2024-12-03 14:49:36.308000+00:00,-0.428571,-5.527467
2024-12-03 14:49:36.312000+00:00,2.538459,1.604394
2024-12-03 14:49:36.316000+00:00,2.549448,5.263731
2024-12-03 14:49:36.320000+00:00,-0.923076,4.61538
2024-12-03 14:49:36.324000+00:00,-3.813183,-3.692304
2024-12-03 14:49:36.328000+00:00,-2.208789,-5.340654
2024-12-03 14:49:36.331000+00:00,0.923076,2.032965
2024-12-03 14:49:36.335000+00:00,1.824174,5.285709
2024-12-03 14:49:36.339000+00:00,-0.736263,5.439555
2024-12-03 14:49:36.343000+00:00,-3.824172,-2.340657
2024-12-03 14:49:36.347000+00:00,-3.362634,-5.296698
2024-12-03 14:49:36.351000+00:00,0.10989,1.406592
2024-12-03 14:49:36.355000+00:00,1.835163,5.252742
2024-12-03 14:49:36.359000+00:00,-0.175824,5.571423
2024-12-03 14:49:36.363000+00:00,-3.2967,-1.615383
2024-12-03 14:49:36.367000+00:00,-2.923074,-5.329665
2024-12-03 14:49:36.371000+00:00,0.10989,-0.76923
2024-12-03 14:49:36.374000+00:00,2.241756,5.043951
2024-12-03 14:49:36.378000+00:00,0.65934,5.571423
2024-12-03 14:49:36.382000+00:00,-2.230767,-0.956043
2024-12-03 14:49:36.386000+00:00,-2.428569,-5.219775
2024-12-03 14:49:36.390000+00:00,0.846153,-2.714283
2024-12-03 14:49:36.394000+00:00,3.373623,4.626369
2024-12-03 14:49:36.398000+00:00,1.835163,5.527467
2024-12-03 14:49:36.402000+00:00,-1.670328,-1.252746
2024-12-03 14:49:36.406000+00:00,-2.714283,-5.285709
2024-12-03 14:49:36.410000+00:00,-1.252746,-4.648347
2024-12-03 14:49:36.414000+00:00,2.769228,4.153842
2024-12-03 14:49:36.417000+00:00,1.505493,5.483511
2024-12-03 14:49:36.421000+00:00,-1.923075,-0.010989
2024-12-03 14:49:36.425000+00:00,-3.054942,-5.131863
2024-12-03 14:49:36.429000+00:00,0.032967,-5.076918
2024-12-03 14:49:36.433000+00:00,3.725271,3.395601
2024-12-03 14:49:36.437000+00:00,3.439557,5.428566
2024-12-03 14:49:36.441000+00:00,0.054945,0.868131
2024-12-03 14:49:36.445000+00:00,-1.86813,-5.131863
2024-12-03 14:49:36.449000+00:00,0.263736,-5.505489
2024-12-03 14:49:36.453000+00:00,3.549447,2.054943
2024-12-03 14:49:36.456000+00:00,3.450546,5.307687
2024-12-03 14:49:36.460000+00:00,0.274725,1.406592
2024-12-03 14:49:36.464000+00:00,-1.615383,-4.967028
2024-12-03 14:49:36.468000+00:00,0.725274,-5.560434
2024-12-03 14:49:36.472000+00:00,4.461534,-0.516483
2024-12-03 14:49:36.476000+00:00,5.043951,5.010984
2024-12-03 14:49:36.480000+00:00,1.923075,1.362636
2024-12-03 14:49:36.484000+00:00,-0.406593,-5.043951
2024-12-03 14:49:36.488000+00:00,1.010988,-5.560434
2024-12-03 14:49:36.492000+00:00,4.28571,-1.736262
2024-12-03 14:49:36.496000+00:00,5.043951,4.802193
2024-12-03 14:49:36.499000+00:00,2.098899,2.978019
2024-12-03 14:49:36.503000+00:00,-0.967032,-4.659336
2024-12-03 14:49:36.507000+00:00,0.010989,-5.527467
2024-12-03 14:49:36.511000+00:00,3.62637,-2.450547
2024-12-03 14:49:36.515000+00:00,5.285709,4.703292
2024-12-03 14:49:36.519000+00:00,2.934063,3.95604
2024-12-03 14:49:36.523000+00:00,-0.263736,-4.549446
2024-12-03 14:49:36.527000+00:00,0.142857,-5.505489
2024-12-03 14:49:36.531000+00:00,3.175821,-3.18681
2024-12-03 14:49:36.535000+00:00,4.604391,4.527468
2024-12-03 14:49:36.539000+00:00,2.274723,5.032962
2024-12-03 14:49:36.542000+00:00,-0.999999,-3.285711
2024-12-03 14:49:36.546000+00:00,-0.934065,-5.417577
2024-12-03 14:49:36.550000+00:00,2.714283,-3.307689
2024-12-03 14:49:36.554000+00:00,5.098896,4.461534
2024-12-03 14:49:36.558000+00:00,3.351645,5.450544
2024-12-03 14:49:36.562000+00:00,-0.010989,-2.890107
2024-12-03 14:49:36.566000+00:00,-0.131868,-5.307687
2024-12-03 14:49:36.570000+00:00,2.714283,-4.703292
2024-12-03 14:49:36.574000+00:00,5.219775,3.714282
2024-12-03 14:49:36.578000+00:00,4.142853,5.362632
2024-12-03 14:49:36.581000+00:00,1.142856,-2.263734
2024-12-03 14:49:36.585000+00:00,0.54945,-5.329665
2024-12-03 14:49:36.589000+00:00,3.2967,-5.417577
2024-12-03 14:49:36.593000+00:00,5.395599,2.395602
2024-12-03 14:49:36.597000+00:00,4.340655,5.296698
2024-12-03 14:49:36.601000+00:00,2.901096,2.736261
2024-12-03 14:49:36.605000+00:00,0.285714,0.10989
2024-12-03 14:49:36.609000+00:00,-3.208788,-5.087907
2024-12-03 14:49:36.613000+00:00,1.736262,-0.087912
2024-12-03 14:49:36.617000+00:00,2.494503,5.131863
2024-12-03 14:49:36.621000+00:00,-2.076921,-1.967031
2024-12-03 14:49:36.624000+00:00,-4.956039,-5.285709
2024-12-03 14:49:36.628000+00:00,-1.989009,-5.593401
2024-12-03 14:49:36.632000+00:00,2.945052,1.582416
2024-12-03 14:49:36.636000+00:00,3.142854,5.241753
2024-12-03 14:49:36.640000+00:00,-2.032965,0.120879
2024-12-03 14:49:36.644000+00:00,-4.901094,-4.989006
2024-12-03 14:49:36.648000+00:00,-1.714284,-5.560434
2024-12-03 14:49:36.652000+00:00,4.153842,1.164834
2024-12-03 14:49:36.656000+00:00,5.373621,5.230764
2024-12-03 14:49:36.660000+00:00,2.175822,3.51648
2024-12-03 14:49:36.664000+00:00,-1.373625,-4.61538
2024-12-03 14:49:36.667000+00:00,0.43956,-5.527467
2024-12-03 14:49:36.671000+00:00,4.890105,-0.351648
2024-12-03 14:49:36.675000+00:00,5.560434,5.087907
2024-12-03 14:49:36.679000+00:00,2.813184,3.692304
2024-12-03 14:49:36.683000+00:00,-1.725273,-4.450545
2024-12-03 14:49:36.687000+00:00,0.846153,-5.516478
2024-12-03 14:49:36.691000+00:00,4.989006,-3.241755
2024-12-03 14:49:36.695000+00:00,5.571423,4.659336
2024-12-03 14:49:36.699000+00:00,4.076919,3.967029
2024-12-03 14:49:36.703000+00:00,0.10989,-4.461534
2024-12-03 14:49:36.706000+00:00,0.538461,-5.516478
2024-12-03 14:49:36.710000+00:00,4.703292,-4.428567
2024-12-03 14:49:36.714000+00:00,5.549445,4.164831
2024-12-03 14:49:36.718000+00:00,3.923073,4.999995
2024-12-03 14:49:36.722000+00:00,-0.494505,-3.615381
2024-12-03 14:49:36.726000+00:00,-1.659339,-5.428566
2024-12-03 14:49:36.730000+00:00,1.999998,-4.186809
2024-12-03 14:49:36.734000+00:00,4.571424,4.439556
2024-12-03 14:49:36.738000+00:00,1.373625,5.516478
2024-12-03 14:49:36.742000+00:00,-4.230765,-1.769229
2024-12-03 14:49:36.746000+00:00,-5.406588,-5.285709
2024-12-03 14:49:36.749000+00:00,-2.505492,-4.109886
2024-12-03 14:49:36.753000+00:00,0.890109,4.494501
2024-12-03 14:49:36.757000+00:00,-0.626373,5.538456
2024-12-03 14:49:36.761000+00:00,-4.131864,1.450548
2024-12-03 14:49:36.765000+00:00,-4.582413,-4.978017
2024-12-03 14:49:36.769000+00:00,0.307692,-4.692303
2024-12-03 14:49:36.773000+00:00,4.978017,4.131864
2024-12-03 14:49:36.777000+00:00,5.065929,5.4945
2024-12-03 14:49:36.781000+00:00,1.296702,1.626372
2024-12-03 14:49:36.785000+00:00,-1.087911,-4.923072
2024-12-03 14:49:36.789000+00:00,1.681317,-5.450544
2024-12-03 14:49:36.792000+00:00,5.16483,3.362634
2024-12-03 14:49:36.796000+00:00,3.967029,5.439555
2024-12-03 14:49:36.800000+00:00,-1.274724,3.120876
2024-12-03 14:49:36.804000+00:00,-5.142852,-4.736259
2024-12-03 14:49:36.808000+00:00,-3.560436,-5.527467
2024-12-03 14:49:36.812000+00:00,0.351648,2.868129
2024-12-03 14:49:36.816000+00:00,0.318681,5.373621
2024-12-03 14:49:36.820000+00:00,-4.428567,5.230764
2024-12-03 14:49:36.824000+00:00,-5.516478,-3.549447
2024-12-03 14:49:36.828000+00:00,-5.582412,-5.021973
2024-12-03 14:49:36.831000+00:00,-3.461535,3.670326
2024-12-03 14:49:36.835000+00:00,-3.197799,5.472522
2024-12-03 14:49:36.839000+00:00,-5.340654,5.582412
2024-12-03 14:49:36.843000+00:00,-5.60439,-2.219778
2024-12-03 14:49:36.847000+00:00,-5.615379,-5.285709
2024-12-03 14:49:36.851000+00:00,-3.692304,2.780217
2024-12-03 14:49:36.855000+00:00,-1.714284,5.351643
2024-12-03 14:49:36.859000+00:00,-4.252743,5.571423
2024-12-03 14:49:36.863000+00:00,-5.516478,-2.912085
2024-12-03 14:49:36.867000+00:00,-4.72527,-5.38461
2024-12-03 14:49:36.871000+00:00,0.065934,-2.351646
2024-12-03 14:49:36.874000+00:00,3.780216,4.967028
2024-12-03 14:49:36.878000+00:00,2.131866,4.571424
2024-12-03 14:49:36.882000+00:00,-1.406592,-4.307688
2024-12-03 14:49:36.886000+00:00,-0.747252,-5.4945
2024-12-03 14:49:36.890000+00:00,4.164831,-5.439555
2024-12-03 14:49:36.894000+00:00,5.4945,2.813184
2024-12-03 14:49:36.898000+00:00,4.956039,4.043952
2024-12-03 14:49:36.902000+00:00,1.131867,-4.373622
2024-12-03 14:49:36.906000+00:00,-0.461538,-5.505489
2024-12-03 14:49:36.910000+00:00,3.087909,-5.131863
2024-12-03 14:49:36.914000+00:00,4.549446,4.340655
2024-12-03 14:49:36.917000+00:00,-1.263735,5.483511
2024-12-03 14:49:36.921000+00:00,-5.230764,5.615379
2024-12-03 14:49:36.925000+00:00,-5.582412,5.593401
2024-12-03 14:49:36.929000+00:00,-5.615379,5.615379
2024-12-03 14:49:36.933000+00:00,-5.626368,5.615379
2024-12-03 14:49:36.937000+00:00,-5.626368,5.615379
2024-12-03 14:49:36.941000+00:00,-5.626368,0.208791
2024-12-03 14:49:36.945000+00:00,-5.615379,-5.076918
2024-12-03 14:49:36.949000+00:00,-5.230764,-5.571423
2024-12-03 14:49:36.953000+00:00,0.560439,1.780218
2024-12-03 14:49:36.956000+00:00,1.945053,5.219775
2024-12-03 14:49:36.960000+00:00,-0.835164,-1.307691
2024-12-03 14:49:36.964000+00:00,-2.956041,-5.219775
2024-12-03 14:49:36.968000+00:00,0.263736,-5.582412
2024-12-03 14:49:36.972000+00:00,3.73626,2.615382
2024-12-03 14:49:36.976000+00:00,4.648347,5.340654
2024-12-03 14:49:36.980000+00:00,1.362636,5.16483
2024-12-03 14:49:36.984000+00:00,-1.241757,-3.241755
2024-12-03 14:49:36.988000+00:00,0.560439,-4.999995
2024-12-03 14:49:36.992000+00:00,4.538457,3.95604
2024-12-03 14:49:36.996000+00:00,5.021973,5.428566
2024-12-03 14:49:36.999000+00:00,1.582416,5.38461
2024-12-03 14:49:37.003000+00:00,-1.494504,-3.307689
2024-12-03 14:49:37.007000+00:00,0.417582,-5.395599
2024-12-03 14:49:37.011000+00:00,4.813182,2.318679
2024-12-03 14:49:37.015000+00:00,5.549445,5.329665
2024-12-03 14:49:37.019000+00:00,3.483513,5.351643
2024-12-03 14:49:37.023000+00:00,-0.142857,-3.560436
2024-12-03 14:49:37.027000+00:00,0.87912,-5.428566
2024-12-03 14:49:37.031000+00:00,4.901094,0.725274
2024-12-03 14:49:37.035000+00:00,5.527467,5.109885
2024-12-03 14:49:37.039000+00:00,2.41758,5.4945
2024-12-03 14:49:37.042000+00:00,-2.461536,-3.109887
2024-12-03 14:49:37.046000+00:00,-2.74725,-5.395599
2024-12-03 14:49:37.050000+00:00,1.373625,-2.373624
2024-12-03 14:49:37.054000+00:00,3.835161,4.791204
2024-12-03 14:49:37.058000+00:00,1.329669,5.538456
2024-12-03 14:49:37.062000+00:00,-3.109887,-2.461536
2024-12-03 14:49:37.066000+00:00,-4.043952,-5.329665
2024-12-03 14:49:37.070000+00:00,-0.54945,-3.230766
2024-12-03 14:49:37.074000+00:00,1.714284,4.373622
2024-12-03 14:49:37.078000+00:00,-0.450549,5.505489
2024-12-03 14:49:37.081000+00:00,-4.593402,-1.20879
2024-12-03 14:49:37.085000+00:00,-5.351643,-5.208786
2024-12-03 14:49:37.089000+00:00,-2.549448,-4.571424
2024-12-03 14:49:37.093000+00:00,0.934065,4.120875
2024-12-03 14:49:37.097000+00:00,0.032967,5.483511
2024-12-03 14:49:37.101000+00:00,-4.241754,-0.582417
2024-12-03 14:49:37.105000+00:00,-5.505489,-5.186808
2024-12-03 14:49:37.109000+00:00,-3.857139,-5.142852
2024-12-03 14:49:37.113000+00:00,-0.164835,2.901096
2024-12-03 14:49:37.117000+00:00,0.0,5.373621
2024-12-03 14:49:37.121000+00:00,-4.340655,-0.967032
2024-12-03 14:49:37.124000+00:00,-5.505489,-5.208786
2024-12-03 14:49:37.128000+00:00,-4.813182,-5.582412
2024-12-03 14:49:37.132000+00:00,-0.571428,-2.604393
2024-12-03 14:49:37.136000+00:00,1.043955,2.340657
2024-12-03 14:49:37.140000+00:00,-1.890108,-3.857139
2024-12-03 14:49:37.144000+00:00,-4.648347,-5.461533
2024-12-03 14:49:37.148000+00:00,-2.571426,-5.60439
2024-12-03 14:49:37.152000+00:00,1.615383,-4.186809
2024-12-03 14:49:37.156000+00:00,3.219777,1.274724
2024-12-03 14:49:37.160000+00:00,-0.065934,-3.538458
2024-12-03 14:49:37.164000+00:00,-3.780216,-5.439555
2024-12-03 14:49:37.167000+00:00,-2.824173,-5.60439
2024-12-03 14:49:37.171000+00:00,1.769229,-3.428568
2024-12-03 14:49:37.175000+00:00,3.912084,4.340655
2024-12-03 14:49:37.179000+00:00,1.0989,2.274723
2024-12-03 14:49:37.183000+00:00,-2.505492,-4.758237
2024-12-03 14:49:37.187000+00:00,-1.472526,-5.560434
2024-12-03 14:49:37.191000+00:00,3.065931,-1.714284
2024-12-03 14:49:37.195000+00:00,5.351643,4.912083
2024-12-03 14:49:37.199000+00:00,3.109887,5.175819
2024-12-03 14:49:37.203000+00:00,-1.021977,-3.197799
2024-12-03 14:49:37.206000+00:00,-1.450548,-5.406588
2024-12-03 14:49:37.210000+00:00,2.30769,-0.98901
2024-12-03 14:49:37.214000+00:00,4.813182,4.989006
2024-12-03 14:49:37.218000+00:00,2.362635,5.560434
2024-12-03 14:49:37.222000+00:00,-2.351646,-1.945053
2024-12-03 14:49:37.226000+00:00,-3.197799,-5.340654
2024-12-03 14:49:37.230000+00:00,-0.736263,-3.813183
2024-12-03 14:49:37.234000+00:00,4.043952,4.494501
2024-12-03 14:49:37.238000+00:00,2.461536,5.516478
2024-12-03 14:49:37.242000+00:00,-2.219778,-1.483515
2024-12-03 14:49:37.246000+00:00,-4.186809,-5.263731
2024-12-03 14:49:37.249000+00:00,-1.0989,-4.241754
2024-12-03 14:49:37.253000+00:00,2.758239,4.186809
2024-12-03 14:49:37.257000+00:00,1.989009,5.4945
2024-12-03 14:49:37.261000+00:00,-2.120877,-1.043955
2024-12-03 14:49:37.265000+00:00,-4.054941,-5.285709
2024-12-03 14:49:37.269000+00:00,-1.175823,-5.175819
2024-12-03 14:49:37.273000+00:00,2.63736,3.18681
2024-12-03 14:49:37.277000+00:00,3.021975,5.406588
2024-12-03 14:49:37.281000+00:00,-1.043955,2.384613
2024-12-03 14:49:37.285000+00:00,-3.813183,-4.736259
2024-12-03 14:49:37.289000+00:00,-1.802196,-4.131864
2024-12-03 14:49:37.292000+00:00,2.076921,4.142853
2024-12-03 14:49:37.296000+00:00,2.120877,5.4945
2024-12-03 14:49:37.300000+00:00,-2.131866,2.868129
2024-12-03 14:49:37.304000+00:00,-5.263731,-4.824171
2024-12-03 14:49:37.308000+00:00,-3.560436,-5.538456
2024-12-03 14:49:37.312000+00:00,0.945054,0.593406
2024-12-03 14:49:37.316000+00:00,2.41758,5.153841
2024-12-03 14:49:37.320000+00:00,-0.681318,4.560435
2024-12-03 14:49:37.324000+00:00,-4.109886,-3.560436
2024-12-03 14:49:37.328000+00:00,-3.241755,-4.626369
2024-12-03 14:49:37.331000+00:00,0.54945,3.791205
2024-12-03 14:49:37.335000+00:00,1.75824,5.461533
2024-12-03 14:49:37.339000+00:00,-1.714284,5.60439
2024-12-03 14:49:37.343000+00:00,-5.230764,-1.0989
2024-12-03 14:49:37.347000+00:00,-5.120874,-4.549446
2024-12-03 14:49:37.351000+00:00,-1.780218,3.307689
2024-12-03 14:49:37.355000+00:00,0.318681,5.417577
2024-12-03 14:49:37.359000+00:00,-2.1978,5.60439
2024-12-03 14:49:37.363000+00:00,-5.131863,0.637362
2024-12-03 14:49:37.367000+00:00,-4.494501,-4.989006
2024-12-03 14:49:37.371000+00:00,-0.373626,0.010989
2024-12-03 14:49:37.374000+00:00,2.813184,5.076918
2024-12-03 14:49:37.378000+00:00,1.406592,4.83516
2024-12-03 14:49:37.382000+00:00,-1.967031,-3.978018
2024-12-03 14:49:37.386000+00:00,-2.054943,-5.450544
2024-12-03 14:49:37.390000+00:00,0.890109,-4.494501
2024-12-03 14:49:37.394000+00:00,3.285711,3.527469
2024-12-03 14:49:37.398000+00:00,1.714284,4.241754
2024-12-03 14:49:37.402000+00:00,-1.725273,-3.978018
2024-12-03 14:49:37.406000+00:00,-2.296701,-5.472522
2024-12-03 14:49:37.410000+00:00,0.681318,-4.483512
2024-12-03 14:49:37.414000+00:00,3.263733,4.186809
2024-12-03 14:49:37.417000+00:00,1.120878,-1.131867
2024-12-03 14:49:37.421000+00:00,-0.857142,-5.285709
2024-12-03 14:49:37.425000+00:00,-5.153841,-5.582412
2024-12-03 14:49:37.429000+00:00,-5.571423,-1.857141
2024-12-03 14:49:37.433000+00:00,-5.615379,4.934061
2024-12-03 14:49:37.437000+00:00,-5.615379,5.560434
2024-12-03 14:49:37.441000+00:00,-5.626368,5.615379
2024-12-03 14:49:37.445000+00:00,-4.428567,3.120876
2024-12-03 14:49:37.449000+00:00,4.230765,-2.483514
2024-12-03 14:49:37.453000+00:00,5.4945,-2.230767
2024-12-03 14:49:37.456000+00:00,5.615379,-0.164835
2024-12-03 14:49:37.460000+00:00,5.615379,-2.615382
2024-12-03 14:49:37.464000+00:00,5.615379,-5.285709
2024-12-03 14:49:37.468000+00:00,5.615379,-0.868131
2024-12-03 14:49:37.472000+00:00,5.615379,5.032962
2024-12-03 14:49:37.476000+00:00,5.615379,5.571423
2024-12-03 14:49:37.480000+00:00,5.219775,5.615379
2024-12-03 14:49:37.484000+00:00,2.96703,1.714284
2024-12-03 14:49:37.488000+00:00,5.098896,1.670328
2024-12-03 14:49:37.492000+00:00,5.582412,5.307687
2024-12-03 14:49:37.496000+00:00,3.593403,5.593401
2024-12-03 14:49:37.499000+00:00,-1.593405,5.615379
2024-12-03 14:49:37.503000+00:00,-5.010984,5.615379
2024-12-03 14:49:37.507000+00:00,-3.604392,5.615379
2024-12-03 14:49:37.511000+00:00,-1.527471,5.615379
2024-12-03 14:49:37.515000+00:00,1.747251,5.615379
2024-12-03 14:49:37.519000+00:00,3.340656,5.615379
2024-12-03 14:49:37.523000+00:00,3.802194,3.527469
2024-12-03 14:49:37.527000+00:00,5.406588,-4.571424
2024-12-03 14:49:37.531000+00:00,5.60439,-5.340654
2024-12-03 14:49:37.535000+00:00,5.615379,-1.274724
2024-12-03 14:49:37.539000+00:00,5.615379,-4.50549
2024-12-03 14:49:37.542000+00:00,5.615379,-5.505489
2024-12-03 14:49:37.546000+00:00,5.615379,-5.60439
2024-12-03 14:49:37.550000+00:00,5.615379,-5.626368
2024-12-03 14:49:37.554000+00:00,5.615379,-5.615379
2024-12-03 14:49:37.558000+00:00,3.230766,-5.615379
2024-12-03 14:49:37.562000+00:00,-2.835162,-5.626368
2024-12-03 14:49:37.566000+00:00,-4.879116,-5.626368
2024-12-03 14:49:37.570000+00:00,-3.175821,-5.626368
2024-12-03 14:49:37.574000+00:00,-1.53846,0.582417
2024-12-03 14:49:37.578000+00:00,-3.868128,5.252742
2024-12-03 14:49:37.581000+00:00,-5.450544,4.50549
2024-12-03 14:49:37.585000+00:00,-5.60439,-2.472525
2024-12-03 14:49:37.589000+00:00,-5.38461,0.571428
2024-12-03 14:49:37.593000+00:00,-3.571425,5.153841
2024-12-03 14:49:37.597000+00:00,-4.791204,5.571423
2024-12-03 14:49:37.601000+00:00,-5.560434,-2.516481
2024-12-03 14:49:37.605000+00:00,-5.615379,-5.340654
2024-12-03 14:49:37.609000+00:00,-3.384612,-5.593401
2024-12-03 14:49:37.613000+00:00,1.989009,-4.967028
2024-12-03 14:49:37.617000+00:00,2.329668,-3.989007
2024-12-03 14:49:37.621000+00:00,-2.450547,-5.461533
2024-12-03 14:49:37.624000+00:00,-5.329665,-5.60439
2024-12-03 14:49:37.628000+00:00,-3.582414,-5.626368
2024-12-03 14:49:37.632000+00:00,1.395603,-1.362636
2024-12-03 14:49:37.636000+00:00,2.153844,4.978017
2024-12-03 14:49:37.640000+00:00,-1.86813,1.516482
2024-12-03 14:49:37.644000+00:00,-4.362633,-4.912083
2024-12-03 14:49:37.648000+00:00,-1.725273,-5.527467
2024-12-03 14:49:37.652000+00:00,2.868129,2.714283
2024-12-03 14:49:37.656000+00:00,3.560436,5.395599
2024-12-03 14:49:37.660000+00:00,-0.241758,3.241755
2024-12-03 14:49:37.664000+00:00,-3.758238,-4.648347
2024-12-03 14:49:37.667000+00:00,-2.351646,-5.527467
2024-12-03 14:49:37.671000+00:00,2.032965,1.527471
2024-12-03 14:49:37.675000+00:00,3.329667,5.252742
2024-12-03 14:49:37.679000+00:00,-0.263736,4.999995
2024-12-03 14:49:37.683000+00:00,-3.538458,-3.84615
2024-12-03 14:49:37.687000+00:00,-2.175822,-5.461533
2024-12-03 14:49:37.691000+00:00,2.758239,0.758241
2024-12-03 14:49:37.695000+00:00,4.923072,5.241753
2024-12-03 14:49:37.699000+00:00,1.483515,5.362632
2024-12-03 14:49:37.703000+00:00,-3.263733,-3.714282
2024-12-03 14:49:37.706000+00:00,-2.670327,-5.439555
2024-12-03 14:49:37.710000+00:00,1.857141,0.604395
2024-12-03 14:49:37.714000+00:00,4.010985,5.186808
2024-12-03 14:49:37.718000+00:00,0.626373,5.582412
2024-12-03 14:49:37.722000+00:00,-4.307688,-2.582415
2024-12-03 14:49:37.726000+00:00,-4.703292,-5.340654
2024-12-03 14:49:37.730000+00:00,-0.560439,-3.494502
2024-12-03 14:49:37.734000+00:00,2.571426,4.802193
2024-12-03 14:49:37.738000+00:00,-0.010989,5.527467
2024-12-03 14:49:37.742000+00:00,-4.637358,-2.736261
2024-12-03 14:49:37.746000+00:00,-5.142852,-5.362632
2024-12-03 14:49:37.749000+00:00,-1.417581,-4.61538
2024-12-03 14:49:37.753000+00:00,2.395602,4.318677
2024-12-03 14:49:37.757000+00:00,0.736263,5.505489
2024-12-03 14:49:37.761000+00:00,-4.219776,-0.824175
2024-12-03 14:49:37.765000+00:00,-5.285709,-5.175819
2024-12-03 14:49:37.769000+00:00,-1.571427,-4.637358
2024-12-03 14:49:37.773000+00:00,3.252744,4.450545
2024-12-03 14:49:37.777000+00:00,1.340658,5.4945
2024-12-03 14:49:37.781000+00:00,-2.098899,2.725272
2024-12-03 14:49:37.785000+00:00,-4.593402,-4.758237
2024-12-03 14:49:37.789000+00:00,-1.285713,-4.472523
2024-12-03 14:49:37.792000+00:00,2.945052,4.362633
2024-12-03 14:49:37.796000+00:00,2.395602,5.505489
2024-12-03 14:49:37.800000+00:00,-2.351646,3.428568
2024-12-03 14:49:37.804000+00:00,-5.27472,-4.681314
2024-12-03 14:49:37.808000+00:00,-2.538459,-5.472522
2024-12-03 14:49:37.812000+00:00,2.571426,3.681315
2024-12-03 14:49:37.816000+00:00,2.835162,5.417577
2024-12-03 14:49:37.820000+00:00,-1.703295,3.043953
2024-12-03 14:49:37.824000+00:00,-5.098896,-4.780215
2024-12-03 14:49:37.828000+00:00,-2.714283,-5.538456
2024-12-03 14:49:37.831000+00:00,2.241756,-0.230769
2024-12-03 14:49:37.835000+00:00,3.120876,5.109885
2024-12-03 14:49:37.839000+00:00,-1.42857,1.527471
2024-12-03 14:49:37.843000+00:00,-5.175819,-4.956039
2024-12-03 14:49:37.847000+00:00,-3.417579,-5.560434
2024-12-03 14:49:37.851000+00:00,2.252745,-1.945053
2024-12-03 14:49:37.855000+00:00,3.835161,4.703292
2024-12-03 14:49:37.859000+00:00,0.065934,2.846151
2024-12-03 14:49:37.863000+00:00,-4.604391,-4.824171
2024-12-03 14:49:37.867000+00:00,-3.659337,-5.538456
2024-12-03 14:49:37.871000+00:00,1.714284,-4.032963
2024-12-03 14:49:37.874000+00:00,4.692303,4.461534
2024-12-03 14:49:37.878000+00:00,2.274723,4.989006
2024-12-03 14:49:37.882000+00:00,-2.131866,-4.076919
2024-12-03 14:49:37.886000+00:00,-1.516482,-5.483511
2024-12-03 14:49:37.890000+00:00,4.131864,-3.164832
2024-12-03 14:49:37.894000+00:00,5.461533,4.538457
2024-12-03 14:49:37.898000+00:00,5.120874,5.4945
2024-12-03 14:49:37.902000+00:00,1.791207,-3.131865
2024-12-03 14:49:37.906000+00:00,1.604394,-5.395599
2024-12-03 14:49:37.910000+00:00,4.978017,-4.967028
2024-12-03 14:49:37.914000+00:00,5.571423,3.868128
2024-12-03 14:49:37.917000+00:00,4.824171,5.439555
2024-12-03 14:49:37.921000+00:00,0.362637,-3.087909
2024-12-03 14:49:37.925000+00:00,-0.901098,-5.38461
2024-12-03 14:49:37.929000+00:00,2.901096,-5.043951
2024-12-03 14:49:37.933000+00:00,5.318676,3.714282
2024-12-03 14:49:37.937000+00:00,5.120874,5.439555
2024-12-03 14:49:37.941000+00:00,0.318681,4.307688
2024-12-03 14:49:37.945000+00:00,-3.197799,-4.406589
2024-12-03 14:49:37.949000+00:00,-0.571428,-5.175819
2024-12-03 14:49:37.953000+00:00,3.824172,3.802194
2024-12-03 14:49:37.956000+00:00,3.219777,5.461533
2024-12-03 14:49:37.960000+00:00,-1.42857,0.725274
2024-12-03 14:49:37.964000+00:00,-3.857139,-5.065929
2024-12-03 14:49:37.968000+00:00,-0.604395,-5.571423
2024-12-03 14:49:37.972000+00:00,3.318678,2.054943
2024-12-03 14:49:37.976000+00:00,3.593403,5.307687
2024-12-03 14:49:37.980000+00:00,-0.120879,3.890106
2024-12-03 14:49:37.984000+00:00,-2.296701,-4.450545
2024-12-03 14:49:37.988000+00:00,0.230769,-5.230764
2024-12-03 14:49:37.992000+00:00,4.318677,3.549447
2024-12-03 14:49:37.996000+00:00,4.681314,5.439555
2024-12-03 14:49:37.999000+00:00,0.758241,4.351644
2024-12-03 14:49:38.003000+00:00,-2.318679,-4.307688
2024-12-03 14:49:38.007000+00:00,-0.131868,-5.516478
2024-12-03 14:49:38.011000+00:00,3.890106,1.120878
2024-12-03 14:49:38.015000+00:00,4.868127,5.197797
2024-12-03 14:49:38.019000+00:00,0.747252,4.681314
2024-12-03 14:49:38.023000+00:00,-3.40659,-4.28571
2024-12-03 14:49:38.027000+00:00,-2.538459,-5.4945
2024-12-03 14:49:38.031000+00:00,1.274724,-0.868131
2024-12-03 14:49:38.035000+00:00,2.450547,5.043951
2024-12-03 14:49:38.039000+00:00,-0.999999,5.186808
2024-12-03 14:49:38.042000+00:00,-4.670325,-3.769227
2024-12-03 14:49:38.046000+00:00,-4.06593,-5.483511
2024-12-03 14:49:38.050000+00:00,0.186813,-2.395602
2024-12-03 14:49:38.054000+00:00,3.098898,4.857138
2024-12-03 14:49:38.058000+00:00,0.747252,5.560434
2024-12-03 14:49:38.062000+00:00,-3.461535,-2.186811
2024-12-03 14:49:38.066000+00:00,-3.84615,-5.318676
2024-12-03 14:49:38.070000+00:00,0.054945,-2.74725
2024-12-03 14:49:38.074000+00:00,2.74725,4.736259
2024-12-03 14:49:38.078000+00:00,0.637362,5.538456
2024-12-03 14:49:38.081000+00:00,-4.032963,-0.890109
2024-12-03 14:49:38.085000+00:00,-4.857138,-5.252742
2024-12-03 14:49:38.089000+00:00,-2.351646,-4.659336
2024-12-03 14:49:38.093000+00:00,2.714283,4.219776
2024-12-03 14:49:38.097000+00:00,1.120878,5.4945
2024-12-03 14:49:38.101000+00:00,-3.802194,-0.164835
2024-12-03 14:49:38.105000+00:00,-5.395599,-5.142852
2024-12-03 14:49:38.109000+00:00,-2.813184,-3.95604
2024-12-03 14:49:38.113000+00:00,0.736263,4.549446
2024-12-03 14:49:38.117000+00:00,-0.406593,5.527467
2024-12-03 14:49:38.121000+00:00,-4.659336,4.307688
2024-12-03 14:49:38.124000+00:00,-5.549445,-4.406589
2024-12-03 14:49:38.128000+00:00,-4.582413,-1.923075
2024-12-03 14:49:38.132000+00:00,-1.131867,4.934061
2024-12-03 14:49:38.136000+00:00,-1.153845,5.560434
2024-12-03 14:49:38.140000+00:00,-4.692303,5.615379
2024-12-03 14:49:38.144000+00:00,-5.549445,2.098899
2024-12-03 14:49:38.148000+00:00,-3.978018,3.043953
2024-12-03 14:49:38.152000+00:00,0.901098,5.406588
2024-12-03 14:49:38.156000+00:00,1.945053,5.60439
2024-12-03 14:49:38.160000+00:00,-1.42857,5.615379
2024-12-03 14:49:38.164000+00:00,-4.604391,1.230768
2024-12-03 14:49:38.167000+00:00,-2.043954,-1.791207
2024-12-03 14:49:38.171000+00:00,3.824172,4.637358
2024-12-03 14:49:38.175000+00:00,5.428566,5.538456
2024-12-03 14:49:38.179000+00:00,3.340656,5.263731
2024-12-03 14:49:38.183000+00:00,0.318681,-3.692304
2024-12-03 14:49:38.187000+00:00,1.637361,-5.450544
2024-12-03 14:49:38.191000+00:00,5.032962,1.780218
2024-12-03 14:49:38.195000+00:00,5.483511,5.285709
2024-12-03 14:49:38.199000+00:00,2.714283,5.593401
2024-12-03 14:49:38.203000+00:00,-0.934065,-2.043954
2024-12-03 14:49:38.206000+00:00,-2.428569,-5.241753
2024-12-03 14:49:38.210000+00:00,-3.637359,-5.582412
2024-12-03 14:49:38.214000+00:00,4.219776,-5.615379
2024-12-03 14:49:38.218000+00:00,5.505489,-5.626368
2024-12-03 14:49:38.222000+00:00,5.615379,-5.626368
2024-12-03 14:49:38.226000+00:00,5.615379,-5.615379
2024-12-03 14:49:38.230000+00:00,5.615379,-4.054941
2024-12-03 14:49:38.234000+00:00,1.175823,4.72527
2024-12-03 14:49:38.238000+00:00,-5.010984,5.538456
2024-12-03 14:49:38.242000+00:00,-5.571423,5.60439
2024-12-03 14:49:38.246000+00:00,-5.615379,5.615379
2024-12-03 14:49:38.249000+00:00,-5.615379,5.615379
2024-12-03 14:49:38.253000+00:00,-5.087907,5.615379
2024-12-03 14:49:38.257000+00:00,3.307689,5.615379
2024-12-03 14:49:38.261000+00:00,5.417577,-1.494504
2024-12-03 14:49:38.265000+00:00,5.60439,-5.252742
2024-12-03 14:49:38.269000+00:00,5.615379,-5.582412
2024-12-03 14:49:38.273000+00:00,5.615379,-2.802195
2024-12-03 14:49:38.277000+00:00,5.615379,4.703292
2024-12-03 14:49:38.281000+00:00,5.593401,0.868131
2024-12-03 14:49:38.285000+00:00,1.505493,-4.934061
2024-12-03 14:49:38.289000+00:00,-2.186811,-5.285709
2024-12-03 14:49:38.292000+00:00,2.076921,3.582414
2024-12-03 14:49:38.296000+00:00,4.3956,4.428567
2024-12-03 14:49:38.300000+00:00,2.890107,-4.318677
2024-12-03 14:49:38.304000+00:00,2.318679,-5.505489
2024-12-03 14:49:38.308000+00:00,4.967028,-5.60439
2024-12-03 14:49:38.312000+00:00,5.571423,-5.252742
2024-12-03 14:49:38.316000+00:00,5.219775,3.758238
2024-12-03 14:49:38.320000+00:00,-0.153846,5.417577
2024-12-03 14:49:38.324000+00:00,-4.670325,2.098899
2024-12-03 14:49:38.328000+00:00,-4.857138,3.065931
2024-12-03 14:49:38.331000+00:00,-0.736263,5.395599
2024-12-03 14:49:38.335000+00:00,1.296702,5.60439
2024-12-03 14:49:38.339000+00:00,-1.307691,5.186808
2024-12-03 14:49:38.343000+00:00,-2.813184,-3.824172
2024-12-03 14:49:38.347000+00:00,0.417582,-5.461533
2024-12-03 14:49:38.351000+00:00,3.439557,-1.967031
2024-12-03 14:49:38.355000+00:00,2.945052,4.714281
2024-12-03 14:49:38.359000+00:00,-1.142856,0.582417
2024-12-03 14:49:38.363000+00:00,-5.032962,-4.923072
2024-12-03 14:49:38.367000+00:00,-4.681314,-5.527467
2024-12-03 14:49:38.371000+00:00,-2.175822,2.868129
2024-12-03 14:49:38.374000+00:00,-1.076922,5.362632
2024-12-03 14:49:38.378000+00:00,-4.483512,5.60439
2024-12-03 14:49:38.382000+00:00,-5.527467,0.043956
2024-12-03 14:49:38.386000+00:00,-5.27472,-4.901094
2024-12-03 14:49:38.390000+00:00,-1.065933,3.285711
2024-12-03 14:49:38.394000+00:00,1.593405,5.417577
2024-12-03 14:49:38.398000+00:00,-3.164832,5.593401
2024-12-03 14:49:38.402000+00:00,-5.373621,0.164835
2024-12-03 14:49:38.406000+00:00,-5.60439,-5.120874
2024-12-03 14:49:38.410000+00:00,-2.934063,-0.65934
2024-12-03 14:49:38.414000+00:00,0.560439,5.076918
2024-12-03 14:49:38.417000+00:00,-2.450547,5.571423
2024-12-03 14:49:38.421000+00:00,-5.351643,-0.648351
2024-12-03 14:49:38.425000+00:00,-5.472522,-5.186808
2024-12-03 14:49:38.429000+00:00,-0.351648,-0.967032
2024-12-03 14:49:38.433000+00:00,4.934061,5.021973
2024-12-03 14:49:38.437000+00:00,3.868128,5.571423
2024-12-03 14:49:38.441000+00:00,-1.703295,4.197798
2024-12-03 14:49:38.445000+00:00,-4.06593,-4.329666
2024-12-03 14:49:38.449000+00:00,0.802197,-0.912087
2024-12-03 14:49:38.453000+00:00,5.16483,5.05494
2024-12-03 14:49:38.456000+00:00,4.72527,5.571423
2024-12-03 14:49:38.460000+00:00,-1.373625,5.373621
2024-12-03 14:49:38.464000+00:00,-5.175819,-3.692304
2024-12-03 14:49:38.468000+00:00,-1.406592,-1.659339
2024-12-03 14:49:38.472000+00:00,4.549446,4.989006
2024-12-03 14:49:38.476000+00:00,3.912084,5.571423
2024-12-03 14:49:38.480000+00:00,-2.516481,5.615379
2024-12-03 14:49:38.484000+00:00,-5.351643,-2.923074
2024-12-03 14:49:38.488000+00:00,-3.593403,-4.626369
2024-12-03 14:49:38.492000+00:00,2.692305,4.219776
2024-12-03 14:49:38.496000+00:00,3.615381,5.4945
2024-12-03 14:49:38.499000+00:00,-3.329667,1.153845
2024-12-03 14:49:38.503000+00:00,-5.428566,-4.999995
2024-12-03 14:49:38.507000+00:00,-4.604391,-5.560434
2024-12-03 14:49:38.511000+00:00,2.329668,-1.164834
2024-12-03 14:49:38.515000+00:00,4.637358,5.098896
2024-12-03 14:49:38.519000+00:00,-1.626372,2.725272
2024-12-03 14:49:38.523000+00:00,-5.285709,-4.846149
2024-12-03 14:49:38.527000+00:00,-4.560435,-5.549445
2024-12-03 14:49:38.531000+00:00,3.263733,-1.923075
2024-12-03 14:49:38.535000+00:00,5.428566,4.967028
2024-12-03 14:49:38.539000+00:00,1.351647,4.912083
2024-12-03 14:49:38.542000+00:00,-4.901094,-4.472523
2024-12-03 14:49:38.546000+00:00,-4.637358,-5.516478
2024-12-03 14:49:38.550000+00:00,2.890107,-1.703295
2024-12-03 14:49:38.554000+00:00,5.406588,5.098896
2024-12-03 14:49:38.558000+00:00,0.934065,5.560434
2024-12-03 14:49:38.562000+00:00,-4.967028,-3.791205
2024-12-03 14:49:38.566000+00:00,-5.285709,-5.450544
2024-12-03 14:49:38.570000+00:00,1.670328,-2.296701
2024-12-03 14:49:38.574000+00:00,5.27472,4.94505
2024-12-03 14:49:38.578000+00:00,1.747251,5.560434
2024-12-03 14:49:38.581000+00:00,-4.857138,-2.912085
2024-12-03 14:49:38.585000+00:00,-5.527467,-5.38461
2024-12-03 14:49:38.589000+00:00,0.560439,-3.725271
2024-12-03 14:49:38.593000+00:00,5.252742,4.879116
2024-12-03 14:49:38.597000+00:00,3.802194,5.538456
2024-12-03 14:49:38.601000+00:00,-4.252743,-2.153844
2024-12-03 14:49:38.605000+00:00,-5.4945,-5.296698
2024-12-03 14:49:38.609000+00:00,0.131868,-4.934061
2024-12-03 14:49:38.613000+00:00,5.153841,4.538457
2024-12-03 14:49:38.617000+00:00,4.417578,5.516478
2024-12-03 14:49:38.621000+00:00,-3.945051,-0.714285
2024-12-03 14:49:38.624000+00:00,-5.472522,-5.186808
2024-12-03 14:49:38.628000+00:00,-1.31868,-5.4945
2024-12-03 14:49:38.632000+00:00,5.05494,4.439556
2024-12-03 14:49:38.636000+00:00,3.868128,5.4945
2024-12-03 14:49:38.640000+00:00,-3.538458,1.945053
2024-12-03 14:49:38.644000+00:00,-5.450544,-4.967028
2024-12-03 14:49:38.648000+00:00,-2.582415,-5.549445
2024-12-03 14:49:38.652000+00:00,4.659336,3.923073
2024-12-03 14:49:38.656000+00:00,5.186808,5.472522
2024-12-03 14:49:38.660000+00:00,-3.021975,3.73626
2024-12-03 14:49:38.664000+00:00,-5.395599,-4.736259
2024-12-03 14:49:38.667000+00:00,-3.483513,-5.538456
2024-12-03 14:49:38.671000+00:00,4.670325,3.868128
2024-12-03 14:49:38.675000+00:00,5.4945,5.428566
2024-12-03 14:49:38.679000+00:00,-1.054944,4.450545
2024-12-03 14:49:38.683000+00:00,-5.252742,-4.670325
2024-12-03 14:49:38.687000+00:00,-2.109888,-5.538456
2024-12-03 14:49:38.691000+00:00,4.824171,2.538459
2024-12-03 14:49:38.695000+00:00,5.560434,5.351643
2024-12-03 14:49:38.699000+00:00,1.571427,5.582412
2024-12-03 14:49:38.703000+00:00,-4.890105,-3.857139
2024-12-03 14:49:38.706000+00:00,-4.461534,-5.461533
2024-12-03 14:49:38.710000+00:00,3.989007,3.065931
2024-12-03 14:49:38.714000+00:00,5.329665,5.351643
2024-12-03 14:49:38.718000+00:00,-2.142855,5.593401
2024-12-03 14:49:38.722000+00:00,-5.329665,-2.945052
2024-12-03 14:49:38.726000+00:00,-5.593401,-5.38461
2024-12-03 14:49:38.730000+00:00,-5.615379,-3.098898
2024-12-03 14:49:38.734000+00:00,-5.626368,4.780215
2024-12-03 14:49:38.738000+00:00,-5.626368,2.30769
2024-12-03 14:49:38.742000+00:00,-5.626368,-4.94505
2024-12-03 14:49:38.746000+00:00,-5.582412,-5.560434
2024-12-03 14:49:38.749000+00:00,3.164832,-5.60439
2024-12-03 14:49:38.753000+00:00,5.373621,3.417579
2024-12-03 14:49:38.757000+00:00,5.087907,4.758237
2024-12-03 14:49:38.761000+00:00,-1.769229,-4.527468
2024-12-03 14:49:38.765000+00:00,-1.252746,-5.516478
2024-12-03 14:49:38.769000+00:00,4.978017,-5.615379
2024-12-03 14:49:38.773000+00:00,5.560434,3.428568
2024-12-03 14:49:38.777000+00:00,5.615379,5.428566
2024-12-03 14:49:38.781000+00:00,4.109886,-3.351645
2024-12-03 14:49:38.785000+00:00,3.263733,-5.417577
2024-12-03 14:49:38.789000+00:00,5.472522,-5.582412
2024-12-03 14:49:38.792000+00:00,5.60439,3.527469
2024-12-03 14:49:38.796000+00:00,5.615379,5.439555
2024-12-03 14:49:38.800000+00:00,1.186812,-3.065931
2024-12-03 14:49:38.804000+00:00,-4.747248,-5.38461
2024-12-03 14:49:38.808000+00:00,1.351647,-5.60439
2024-12-03 14:49:38.812000+00:00,5.241753,1.527471
2024-12-03 14:49:38.816000+00:00,5.219775,5.263731
2024-12-03 14:49:38.820000+00:00,-3.065931,-2.230767
2024-12-03 14:49:38.824000+00:00,-5.395599,-5.307687
2024-12-03 14:49:38.828000+00:00,1.703295,-5.593401
2024-12-03 14:49:38.831000+00:00,5.230764,-0.373626
2024-12-03 14:49:38.835000+00:00,5.593401,5.098896
2024-12-03 14:49:38.839000+00:00,2.923074,-0.153846
2024-12-03 14:49:38.843000+00:00,-4.296699,-5.120874
2024-12-03 14:49:38.847000+00:00,-1.0989,-5.571423
2024-12-03 14:49:38.851000+00:00,4.956039,2.131866
2024-12-03 14:49:38.855000+00:00,5.417577,5.296698
2024-12-03 14:49:38.859000+00:00,-2.340657,5.593401
2024-12-03 14:49:38.863000+00:00,-5.340654,-3.582414
2024-12-03 14:49:38.867000+00:00,-5.593401,-5.428566
2024-12-03 14:49:38.871000+00:00,-5.615379,3.527469
2024-12-03 14:49:38.874000+00:00,-5.626368,5.428566
2024-12-03 14:49:38.878000+00:00,-5.626368,5.60439
2024-12-03 14:49:38.882000+00:00,-5.626368,-3.659337
2024-12-03 14:49:38.886000+00:00,1.461537,-5.439555
2024-12-03 14:49:38.890000+00:00,5.27472,-5.60439
2024-12-03 14:49:38.894000+00:00,5.593401,-5.615379
2024-12-03 14:49:38.898000+00:00,5.615379,-5.615379
2024-12-03 14:49:38.902000+00:00,5.615379,-5.615379
2024-12-03 14:49:38.906000+00:00,-3.769227,-5.626368
2024-12-03 14:49:38.910000+00:00,-5.439555,-1.417581
2024-12-03 14:49:38.914000+00:00,-5.60439,4.967028
2024-12-03 14:49:38.917000+00:00,-1.923075,5.560434
2024-12-03 14:49:38.921000+00:00,4.538457,5.560434
2024-12-03 14:49:38.925000+00:00,-1.263735,2.120877
2024-12-03 14:49:38.929000+00:00,-5.27472,5.296698
2024-12-03 14:49:38.933000+00:00,-5.593401,5.60439
2024-12-03 14:49:38.937000+00:00,-5.615379,5.615379
2024-12-03 14:49:38.941000+00:00,-5.626368,5.615379
2024-12-03 14:49:38.945000+00:00,-5.615379,3.208788
2024-12-03 14:49:38.949000+00:00,-5.626368,5.175819
2024-12-03 14:49:38.953000+00:00,-4.703292,5.582412
2024-12-03 14:49:38.956000+00:00,-5.318676,5.615379
2024-12-03 14:49:38.960000+00:00,-5.60439,2.714283
2024-12-03 14:49:38.964000+00:00,-5.626368,-4.890105
2024-12-03 14:49:38.968000+00:00,-3.252744,-5.406588
2024-12-03 14:49:38.972000+00:00,4.241754,4.021974
2024-12-03 14:49:38.976000+00:00,3.725271,5.483511
2024-12-03 14:49:38.980000+00:00,-3.043953,5.263731
2024-12-03 14:49:38.984000+00:00,-5.351643,-4.318677
2024-12-03 14:49:38.988000+00:00,0.802197,-3.813183
2024-12-03 14:49:38.992000+00:00,5.219775,4.72527
2024-12-03 14:49:38.996000+00:00,5.582412,5.538456
2024-12-03 14:49:38.999000+00:00,4.197798,5.560434
2024-12-03 14:49:39.003000+00:00,-1.362636,-3.934062
2024-12-03 14:49:39.007000+00:00,-0.516483,-5.461533
2024-12-03 14:49:39.011000+00:00,4.791204,3.18681
2024-12-03 14:49:39.015000+00:00,5.450544,5.406588
2024-12-03 14:49:39.019000+00:00,-0.76923,5.318676
2024-12-03 14:49:39.023000+00:00,-5.263731,-4.50549
2024-12-03 14:49:39.027000+00:00,-4.934061,-5.505489
2024-12-03 14:49:39.031000+00:00,3.241755,2.08791
2024-12-03 14:49:39.035000+00:00,5.208786,5.307687
2024-12-03 14:49:39.039000+00:00,-1.285713,5.406588
2024-12-03 14:49:39.042000+00:00,-5.241753,-4.164831
